{
    "AcquisitionMatrixPE": 88,
    "AcquisitionNumber": 1,
    "AcquisitionTime": "12:14:39.660000",
    "BaseResolution": 88,
    "BodyPartExamined": "BRAIN",
    "ConsistencyInfo": "N4_VE11C_LATEST_20160120",
    "ConversionSoftware": "dcm2niix",
    "ConversionSoftwareVersion": "v1.0.20190902",
    "DeviceSerialNumber": "67050",
    "DwellTime": 9.5e-06,
    "EchoNumber": 2,
    "EchoTime": 0.00738,
    "EchoTime1": 0.00492,
    "EchoTime2": 0.00738,
    "FlipAngle": 60,
    "ImageOrientationPatientDICOM": [
        0.99104,
        -0.0338363,
        -0.129211,
        0.0366862,
        0.999132,
        0.0197389
    ],
    "ImageType": [
        "ORIGINAL",
        "PRIMARY",
        "P",
        "ND"
    ],
    "ImagingFrequency": 123.251,
    "InPlanePhaseEncodingDirectionDICOM": "COL",
    "InstitutionAddress": "Olive_Street_60_Providence_RI_US_02912",
    "InstitutionName": "BROWN_UNIVERSITY_MRF",
    "InstitutionalDepartmentName": "Department",
    "IntendedFor": [
        "ses-01/func/sub-8017_ses-01_task-RDMmotion_run-03_bold.nii.gz",
        "ses-01/func/sub-8017_ses-01_task-RDMcolor_run-04_bold.nii.gz",
        "ses-01/func/sub-8017_ses-01_task-RDMmotion_run-04_bold.nii.gz",
        "ses-01/func/sub-8017_ses-01_task-RDMlocalizer_run-02_bold.nii.gz",
        "ses-01/func/sub-8017_ses-01_task-RDMmotion_run-02_bold.nii.gz",
        "ses-01/func/sub-8017_ses-01_task-RDMcolor_run-01_bold.nii.gz",
        "ses-01/func/sub-8017_ses-01_task-RDMcolor_run-06_bold.nii.gz",
        "ses-01/func/sub-8017_ses-01_task-RDMcolor_run-02_bold.nii.gz",
        "ses-01/func/sub-8017_ses-01_task-RDMmotion_run-01_bold.nii.gz",
        "ses-01/func/sub-8017_ses-01_task-RDMlocalizer_run-01_bold.nii.gz",
        "ses-01/func/sub-8017_ses-01_task-RDMcolor_run-03_bold.nii.gz",
        "ses-01/func/sub-8017_ses-01_task-RDMmotion_run-05_bold.nii.gz",
        "ses-01/func/sub-8017_ses-01_task-RDMcolor_run-05_bold.nii.gz",
        "ses-01/func/sub-8017_ses-01_task-RDMmotion_run-06_bold.nii.gz"
    ],
    "MRAcquisitionType": "2D",
    "MagneticFieldStrength": 3,
    "Manufacturer": "Siemens",
    "ManufacturersModelName": "Prisma_fit",
    "Modality": "MR",
    "PartialFourier": 1,
    "PatientPosition": "HFS",
    "PercentPhaseFOV": 100,
    "PhaseEncodingDirection": "j-",
    "PhaseEncodingSteps": 88,
    "PhaseResolution": 1,
    "PixelBandwidth": 600,
    "ProcedureStepDescription": "ASHENHAV_1222",
    "ProtocolName": "fmap_acq-greAP",
    "PulseSequenceDetails": "%SiemensSeq%_gre_field_mapping",
    "ReceiveCoilActiveElements": "HC1-7",
    "ReceiveCoilName": "HeadNeck_64",
    "ReconMatrixPE": 88,
    "RepetitionTime": 0.588,
    "SAR": 0.125878,
    "ScanningSequence": "GR",
    "SequenceName": "_fm2d2r",
    "SequenceVariant": "SP",
    "SeriesDescription": "fmap_acq-greAP",
    "SeriesNumber": 22,
    "ShimSetting": [
        1723,
        -9117,
        4435,
        490,
        22,
        -188,
        -99,
        -23
    ],
    "SliceThickness": 2.4,
    "SliceTiming": [
        0.28906,
        0,
        0.30469,
        0.00781,
        0.3125,
        0.01562,
        0.32031,
        0.03125,
        0.32812,
        0.03906,
        0.34375,
        0.04688,
        0.35156,
        0.05469,
        0.35938,
        0.07031,
        0.36719,
        0.07812,
        0.38281,
        0.08594,
        0.39062,
        0.09375,
        0.39844,
        0.10156,
        0.41406,
        0.11719,
        0.42188,
        0.125,
        0.42969,
        0.13281,
        0.4375,
        0.14844,
        0.44531,
        0.15625,
        0.46094,
        0.16406,
        0.46875,
        0.17188,
        0.47656,
        0.1875,
        0.48438,
        0.19531,
        0.5,
        0.20312,
        0.50781,
        0.21094,
        0.51562,
        0.22656,
        0.53125,
        0.23438,
        0.53906,
        0.24219,
        0.54688,
        0.25,
        0.55469,
        0.26562,
        0.5625,
        0.27344,
        0.57812,
        0.28125
    ],
    "SoftwareVersions": "syngo_MR_E11",
    "SpacingBetweenSlices": 2.4,
    "StationName": "AWP67050",
    "TxRefAmp": 215.627,
    "dcmmeta_affine": [
        [
            -2.3762428760528564,
            0.08796339482069016,
            -0.30823421478271484,
            103.8264389038086
        ],
        [
            0.08113029599189758,
            2.3956456184387207,
            0.05832540988922119,
            -108.64026641845703
        ],
        [
            -0.3098122179508209,
            -0.04732844978570938,
            2.3794097900390625,
            -30.447969436645508
        ],
        [
            0.0,
            0.0,
            0.0,
            1.0
        ]
    ],
    "dcmmeta_reorient_transform": [
        [
            0.0,
            -1.0,
            0.0,
            87.0
        ],
        [
            1.0,
            0.0,
            0.0,
            0.0
        ],
        [
            0.0,
            0.0,
            -1.0,
            59.0
        ],
        [
            0.0,
            0.0,
            0.0,
            1.0
        ]
    ],
    "dcmmeta_shape": [
        88,
        88,
        60
    ],
    "dcmmeta_slice_dim": 2,
    "dcmmeta_version": 0.6,
    "global": {
        "const": {
            "AcquisitionMatrix": [
                88,
                0,
                0,
                88
            ],
            "AcquisitionNumber": 1,
            "AngioFlag": "N",
            "BitsAllocated": 16,
            "BitsStored": 12,
            "BodyPartExamined": "BRAIN",
            "Columns": 88,
            "DeidentificationMethodCodeSequence": [
                {
                    "CodeMeaning": "XNAT DicomEdit 6 Script",
                    "CodeValue": "3",
                    "CodingSchemeDesignator": "XNAT",
                    "CodingSchemeVersion": "1.0"
                }
            ],
            "EchoNumbers": 2,
            "EchoTime": 7.38,
            "EchoTrainLength": 0,
            "FlipAngle": 60.0,
            "HighBit": 11,
            "ImageOrientationPatient": [
                0.99103969479352,
                -0.0338363336578,
                -0.1292107807738,
                0.03668615461408,
                0.99913187453224,
                0.01973887923162
            ],
            "ImageType": [
                "ORIGINAL",
                "PRIMARY",
                "P",
                "ND"
            ],
            "ImagedNucleus": "1H",
            "ImagingFrequency": 123.250669,
            "InPlanePhaseEncodingDirection": "COL",
            "MRAcquisitionType": "2D",
            "MagneticFieldStrength": 3.0,
            "Manufacturer": "SIEMENS",
            "ManufacturerModelName": "Prisma_fit",
            "Modality": "MR",
            "NumberOfAverages": 1.0,
            "NumberOfPhaseEncodingSteps": 88,
            "PercentPhaseFieldOfView": 100.0,
            "PercentSampling": 100.0,
            "PerformedProcedureStepStartTime": "104127.933000",
            "PhotometricInterpretation": "MONOCHROME2",
            "PixelBandwidth": 600.0,
            "PixelRepresentation": 0,
            "PixelSpacing": [
                2.3977272510529,
                2.3977272510529
            ],
            "ProtocolName": "fmap_acq-greAP",
            "RepetitionTime": 588.0,
            "RescaleIntercept": -4096.0,
            "RescaleSlope": 2.0,
            "RescaleType": "US",
            "Rows": 88,
            "SAR": 0.1258775936208,
            "SamplesPerPixel": 1,
            "ScanningSequence": "GR",
            "SequenceName": "*fm2d2r",
            "SequenceVariant": "SP",
            "SeriesDescription": "fmap_acq-greAP",
            "SeriesNumber": 22,
            "SeriesTime": "121623.687000",
            "SliceThickness": 2.4000000953674,
            "SoftwareVersions": "syngo MR E11",
            "SpacingBetweenSlices": 2.4,
            "SpecificCharacterSet": "ISO_IR 100",
            "StudyID": "1",
            "StudyTime": "104127.873000",
            "TransmitCoilName": "Body",
            "VariableFlipAngleFlag": "N",
            "WindowCenterWidthExplanation": "Algo1",
            "dBdt": 0.0
        },
        "slices": {
            "AcquisitionTime": [
                "121439.660000",
                "121439.365000",
                "121439.670000",
                "121439.375000",
                "121439.680000",
                "121439.385000",
                "121439.687500",
                "121439.395000",
                "121439.697500",
                "121439.405000",
                "121439.707500",
                "121439.415000",
                "121439.717500",
                "121439.425000",
                "121439.727500",
                "121439.435000",
                "121439.737500",
                "121439.442500",
                "121439.747500",
                "121439.452500",
                "121439.757500",
                "121439.462500",
                "121439.767500",
                "121439.472500",
                "121439.777500",
                "121439.482500",
                "121439.787500",
                "121439.492500",
                "121439.797500",
                "121439.502500",
                "121439.807500",
                "121439.512500",
                "121439.815000",
                "121439.522500",
                "121439.825000",
                "121439.532500",
                "121439.835000",
                "121439.542500",
                "121439.845000",
                "121439.552500",
                "121439.855000",
                "121439.562500",
                "121439.865000",
                "121439.570000",
                "121439.875000",
                "121439.580000",
                "121439.885000",
                "121439.590000",
                "121439.895000",
                "121439.600000",
                "121439.905000",
                "121439.610000",
                "121439.915000",
                "121439.620000",
                "121439.925000",
                "121439.630000",
                "121439.932500",
                "121439.640000",
                "121439.942500",
                "121439.650000"
            ],
            "ContentTime": [
                "121623.759000",
                "121623.692000",
                "121623.761000",
                "121623.694000",
                "121623.763000",
                "121623.696000",
                "121623.765000",
                "121623.698000",
                "121623.767000",
                "121623.710000",
                "121623.769000",
                "121623.712000",
                "121623.770000",
                "121623.714000",
                "121623.772000",
                "121623.716000",
                "121623.774000",
                "121623.718000",
                "121623.776000",
                "121623.720000",
                "121623.778000",
                "121623.721000",
                "121623.780000",
                "121623.723000",
                "121623.782000",
                "121623.725000",
                "121623.783000",
                "121623.727000",
                "121623.785000",
                "121623.729000",
                "121623.787000",
                "121623.731000",
                "121623.792000",
                "121623.733000",
                "121623.794000",
                "121623.735000",
                "121623.796000",
                "121623.737000",
                "121623.798000",
                "121623.738000",
                "121623.800000",
                "121623.740000",
                "121623.802000",
                "121623.742000",
                "121623.804000",
                "121623.744000",
                "121623.806000",
                "121623.746000",
                "121623.807000",
                "121623.748000",
                "121623.809000",
                "121623.750000",
                "121623.811000",
                "121623.752000",
                "121623.813000",
                "121623.753000",
                "121623.815000",
                "121623.755000",
                "121623.817000",
                "121623.757000"
            ],
            "CsaImage.GSWDDataType": [
                "predicted",
                "predicted",
                "predicted",
                "predicted",
                "predicted",
                "predicted",
                "predicted",
                "predicted",
                "predicted",
                "predicted",
                "predicted",
                "predicted",
                "predicted",
                "predicted",
                "predicted",
                "predicted",
                "predicted",
                "predicted",
                "predicted",
                "predicted",
                "predicted",
                "predicted",
                "predicted",
                "predicted",
                "predicted",
                "predicted",
                "predicted",
                "predicted",
                "predicted",
                "predicted",
                "measured",
                "predicted",
                "measured",
                "predicted",
                "measured",
                "predicted",
                "measured",
                "predicted",
                "measured",
                "predicted",
                "measured",
                "predicted",
                "measured",
                "predicted",
                "measured",
                "predicted",
                "measured",
                "predicted",
                "measured",
                "predicted",
                "measured",
                "predicted",
                "measured",
                "predicted",
                "measured",
                "predicted",
                "measured",
                "predicted",
                "measured",
                "predicted"
            ],
            "CsaImage.ICE_Dims": [
                "X_2_1_1_1_1_1_31_1_1_1_1_450",
                "X_2_1_1_1_1_1_1_1_1_2_1_450",
                "X_2_1_1_1_1_1_32_1_1_3_1_450",
                "X_2_1_1_1_1_1_2_1_1_4_1_450",
                "X_2_1_1_1_1_1_33_1_1_5_1_450",
                "X_2_1_1_1_1_1_3_1_1_6_1_450",
                "X_2_1_1_1_1_1_34_1_1_7_1_450",
                "X_2_1_1_1_1_1_4_1_1_8_1_450",
                "X_2_1_1_1_1_1_35_1_1_9_1_450",
                "X_2_1_1_1_1_1_5_1_1_10_1_450",
                "X_2_1_1_1_1_1_36_1_1_11_1_450",
                "X_2_1_1_1_1_1_6_1_1_12_1_450",
                "X_2_1_1_1_1_1_37_1_1_13_1_450",
                "X_2_1_1_1_1_1_7_1_1_14_1_450",
                "X_2_1_1_1_1_1_38_1_1_15_1_450",
                "X_2_1_1_1_1_1_8_1_1_16_1_450",
                "X_2_1_1_1_1_1_39_1_1_17_1_450",
                "X_2_1_1_1_1_1_9_1_1_18_1_450",
                "X_2_1_1_1_1_1_40_1_1_19_1_450",
                "X_2_1_1_1_1_1_10_1_1_20_1_450",
                "X_2_1_1_1_1_1_41_1_1_21_1_450",
                "X_2_1_1_1_1_1_11_1_1_22_1_450",
                "X_2_1_1_1_1_1_42_1_1_23_1_450",
                "X_2_1_1_1_1_1_12_1_1_24_1_450",
                "X_2_1_1_1_1_1_43_1_1_25_1_450",
                "X_2_1_1_1_1_1_13_1_1_26_1_450",
                "X_2_1_1_1_1_1_44_1_1_27_1_450",
                "X_2_1_1_1_1_1_14_1_1_28_1_450",
                "X_2_1_1_1_1_1_45_1_1_29_1_450",
                "X_2_1_1_1_1_1_15_1_1_30_1_450",
                "X_2_1_1_1_1_1_46_1_1_31_1_450",
                "X_2_1_1_1_1_1_16_1_1_32_1_450",
                "X_2_1_1_1_1_1_47_1_1_33_1_450",
                "X_2_1_1_1_1_1_17_1_1_34_1_450",
                "X_2_1_1_1_1_1_48_1_1_35_1_450",
                "X_2_1_1_1_1_1_18_1_1_36_1_450",
                "X_2_1_1_1_1_1_49_1_1_37_1_450",
                "X_2_1_1_1_1_1_19_1_1_38_1_450",
                "X_2_1_1_1_1_1_50_1_1_39_1_450",
                "X_2_1_1_1_1_1_20_1_1_40_1_450",
                "X_2_1_1_1_1_1_51_1_1_41_1_450",
                "X_2_1_1_1_1_1_21_1_1_42_1_450",
                "X_2_1_1_1_1_1_52_1_1_43_1_450",
                "X_2_1_1_1_1_1_22_1_1_44_1_450",
                "X_2_1_1_1_1_1_53_1_1_45_1_450",
                "X_2_1_1_1_1_1_23_1_1_46_1_450",
                "X_2_1_1_1_1_1_54_1_1_47_1_450",
                "X_2_1_1_1_1_1_24_1_1_48_1_450",
                "X_2_1_1_1_1_1_55_1_1_49_1_450",
                "X_2_1_1_1_1_1_25_1_1_50_1_450",
                "X_2_1_1_1_1_1_56_1_1_51_1_450",
                "X_2_1_1_1_1_1_26_1_1_52_1_450",
                "X_2_1_1_1_1_1_57_1_1_53_1_450",
                "X_2_1_1_1_1_1_27_1_1_54_1_450",
                "X_2_1_1_1_1_1_58_1_1_55_1_450",
                "X_2_1_1_1_1_1_28_1_1_56_1_450",
                "X_2_1_1_1_1_1_59_1_1_57_1_450",
                "X_2_1_1_1_1_1_29_1_1_58_1_450",
                "X_2_1_1_1_1_1_60_1_1_59_1_450",
                "X_2_1_1_1_1_1_30_1_1_60_1_450"
            ],
            "CsaImage.ProtocolSliceNumber": [
                0,
                1,
                2,
                3,
                4,
                5,
                6,
                7,
                8,
                9,
                10,
                11,
                12,
                13,
                14,
                15,
                16,
                17,
                18,
                19,
                20,
                21,
                22,
                23,
                24,
                25,
                26,
                27,
                28,
                29,
                30,
                31,
                32,
                33,
                34,
                35,
                36,
                37,
                38,
                39,
                40,
                41,
                42,
                43,
                44,
                45,
                46,
                47,
                48,
                49,
                50,
                51,
                52,
                53,
                54,
                55,
                56,
                57,
                58,
                59
            ],
            "CsaImage.RFSWDDataType": [
                "predicted",
                "predicted",
                "predicted",
                "predicted",
                "predicted",
                "predicted",
                "predicted",
                "predicted",
                "predicted",
                "predicted",
                "predicted",
                "predicted",
                "predicted",
                "predicted",
                "predicted",
                "predicted",
                "predicted",
                "predicted",
                "predicted",
                "predicted",
                "predicted",
                "predicted",
                "predicted",
                "predicted",
                "measured",
                "predicted",
                "measured",
                "predicted",
                "measured",
                "predicted",
                "measured",
                "predicted",
                "measured",
                "predicted",
                "measured",
                "predicted",
                "measured",
                "predicted",
                "measured",
                "predicted",
                "measured",
                "predicted",
                "measured",
                "predicted",
                "measured",
                "predicted",
                "measured",
                "predicted",
                "measured",
                "predicted",
                "measured",
                "predicted",
                "measured",
                "predicted",
                "measured",
                "predicted",
                "measured",
                "predicted",
                "measured",
                "predicted"
            ],
            "CsaImage.SliceMeasurementDuration": [
                102312.5,
                102312.5,
                102310.0,
                102312.5,
                102310.0,
                102312.5,
                102312.5,
                102312.5,
                102312.5,
                102312.5,
                102312.5,
                102312.5,
                102312.5,
                102310.0,
                102312.5,
                102310.0,
                102312.5,
                102312.5,
                102312.5,
                102312.5,
                102312.5,
                102312.5,
                102312.5,
                102312.5,
                102312.5,
                102312.5,
                102310.0,
                102312.5,
                102310.0,
                102312.5,
                102310.0,
                102312.5,
                102312.5,
                102312.5,
                102312.5,
                102312.5,
                102312.5,
                102310.0,
                102312.5,
                102310.0,
                102312.5,
                102310.0,
                102312.5,
                102312.5,
                102312.5,
                102312.5,
                102312.5,
                102312.5,
                102312.5,
                102312.5,
                102312.5,
                102312.5,
                102310.0,
                102312.5,
                102310.0,
                102312.5,
                102312.5,
                102312.5,
                102312.5,
                102312.5
            ],
            "CsaImage.SlicePosition_PCS": [
                [
                    -111.479226,
                    -99.78090648,
                    -34.56553306
                ],
                [
                    -111.17099226,
                    -99.83923177,
                    -32.18612327
                ],
                [
                    -110.86275852,
                    -99.8975573,
                    -29.80671348
                ],
                [
                    -110.55452478,
                    -99.95588271,
                    -27.42730369
                ],
                [
                    -110.24629093,
                    -100.01420812,
                    -25.0478939
                ],
                [
                    -109.93805719,
                    -100.07253353,
                    -22.66848411
                ],
                [
                    -109.62982357,
                    -100.13085894,
                    -20.28907623
                ],
                [
                    -109.32158977,
                    -100.18918447,
                    -17.90966644
                ],
                [
                    -109.01335604,
                    -100.24750988,
                    -15.53025665
                ],
                [
                    -108.70512233,
                    -100.30583529,
                    -13.15084686
                ],
                [
                    -108.39688861,
                    -100.3641607,
                    -10.77143707
                ],
                [
                    -108.08865488,
                    -100.42248611,
                    -8.39202728
                ],
                [
                    -107.78042114,
                    -100.48081164,
                    -6.01261749
                ],
                [
                    -107.47218741,
                    -100.53913705,
                    -3.63320866
                ],
                [
                    -107.16395367,
                    -100.59746246,
                    -1.25379887
                ],
                [
                    -106.85571993,
                    -100.65578787,
                    1.12560997
                ],
                [
                    -106.54748619,
                    -100.71411328,
                    3.50501976
                ],
                [
                    -106.23925245,
                    -100.77243881,
                    5.88442955
                ],
                [
                    -105.93101872,
                    -100.83076422,
                    8.26383934
                ],
                [
                    -105.62278498,
                    -100.88908963,
                    10.64324889
                ],
                [
                    -105.31455124,
                    -100.9474151,
                    13.02265856
                ],
                [
                    -105.0063175,
                    -101.00574051,
                    15.40206823
                ],
                [
                    -104.698084,
                    -101.06406592,
                    17.78147755
                ],
                [
                    -104.38985026,
                    -101.12239139,
                    20.16088734
                ],
                [
                    -104.08161653,
                    -101.1807168,
                    22.54029713
                ],
                [
                    -103.77338279,
                    -101.23904227,
                    24.91970692
                ],
                [
                    -103.46514905,
                    -101.29736768,
                    27.29911575
                ],
                [
                    -103.15691531,
                    -101.35569312,
                    29.67852554
                ],
                [
                    -102.84868157,
                    -101.41401856,
                    32.05793533
                ],
                [
                    -102.54044784,
                    -101.47234396,
                    34.43734512
                ],
                [
                    -102.2322141,
                    -101.5306694,
                    36.81675491
                ],
                [
                    -101.92398036,
                    -101.58899484,
                    39.1961647
                ],
                [
                    -101.61574662,
                    -101.64732028,
                    41.57557449
                ],
                [
                    -101.30751288,
                    -101.70564571,
                    43.95498238
                ],
                [
                    -100.99927915,
                    -101.76397115,
                    46.33439217
                ],
                [
                    -100.69104541,
                    -101.82229658,
                    48.71380196
                ],
                [
                    -100.38281215,
                    -101.88062202,
                    51.09321175
                ],
                [
                    -100.07457793,
                    -101.93894745,
                    53.47262154
                ],
                [
                    -99.76634467,
                    -101.99727289,
                    55.85203133
                ],
                [
                    -99.45811046,
                    -102.05559832,
                    58.23144112
                ],
                [
                    -99.1498772,
                    -102.11392374,
                    60.61085091
                ],
                [
                    -98.84164298,
                    -102.17224918,
                    62.9902607
                ],
                [
                    -98.53340972,
                    -102.23057462,
                    65.36967049
                ],
                [
                    -98.22517551,
                    -102.28890006,
                    67.74908028
                ],
                [
                    -97.91694224,
                    -102.34722547,
                    70.12849007
                ],
                [
                    -97.60870803,
                    -102.40555094,
                    72.50789986
                ],
                [
                    -97.30047477,
                    -102.46387635,
                    74.88730965
                ],
                [
                    -96.99224055,
                    -102.52220182,
                    77.26671562
                ],
                [
                    -96.68400729,
                    -102.58052723,
                    79.64612541
                ],
                [
                    -96.37577308,
                    -102.63885264,
                    82.0255352
                ],
                [
                    -96.06753982,
                    -102.69717811,
                    84.40494499
                ],
                [
                    -95.7593056,
                    -102.75550352,
                    86.78435478
                ],
                [
                    -95.45107234,
                    -102.81382899,
                    89.16376457
                ],
                [
                    -95.14283813,
                    -102.8721544,
                    91.54317436
                ],
                [
                    -94.83460486,
                    -102.93047981,
                    93.92258415
                ],
                [
                    -94.52637065,
                    -102.98880522,
                    96.30199394
                ],
                [
                    -94.21813739,
                    -103.04713075,
                    98.68140373
                ],
                [
                    -93.90990317,
                    -103.10545616,
                    101.06081352
                ],
                [
                    -93.60166991,
                    -103.16378157,
                    103.44022331
                ],
                [
                    -93.2934357,
                    -103.22210698,
