{
    "AcquisitionMatrixPE": 88,
    "AcquisitionNumber": 1,
    "AcquisitionTime": "16:41:35.287500",
    "BaseResolution": 88,
    "BodyPartExamined": "BRAIN",
    "ConsistencyInfo": "N4_VE11C_LATEST_20160120",
    "ConversionSoftware": "dcm2niix",
    "ConversionSoftwareVersion": "v1.0.20190902",
    "DeviceSerialNumber": "67050",
    "DwellTime": 9.5e-06,
    "EchoNumber": 2,
    "EchoTime": 0.00738,
    "EchoTime1": 0.00492,
    "EchoTime2": 0.00738,
    "FlipAngle": 60,
    "ImageOrientationPatientDICOM": [
        0.999279,
        0.0337624,
        -0.0173723,
        -0.036118,
        0.986357,
        -0.160611
    ],
    "ImageType": [
        "ORIGINAL",
        "PRIMARY",
        "P",
        "ND"
    ],
    "ImagingFrequency": 123.25,
    "InPlanePhaseEncodingDirectionDICOM": "COL",
    "InstitutionAddress": "Olive_Street_60_Providence_RI_US_02912",
    "InstitutionName": "BROWN_UNIVERSITY_MRF",
    "InstitutionalDepartmentName": "Department",
    "IntendedFor": [
        "ses-01/func/sub-8007_ses-01_task-RDMmotion_run-03_bold.nii.gz",
        "ses-01/func/sub-8007_ses-01_task-RDMcolor_run-04_bold.nii.gz",
        "ses-01/func/sub-8007_ses-01_task-RDMmotion_run-02_bold.nii.gz",
        "ses-01/func/sub-8007_ses-01_task-RDMcolor_run-03_bold.nii.gz",
        "ses-01/func/sub-8007_ses-01_task-RDMmotion_run-01_bold.nii.gz",
        "ses-01/func/sub-8007_ses-01_task-RDMcolor_run-02_bold.nii.gz",
        "ses-01/func/sub-8007_ses-01_task-RDMmotion_run-04_bold.nii.gz",
        "ses-01/func/sub-8007_ses-01_task-RDMmotion_run-05_bold.nii.gz",
        "ses-01/func/sub-8007_ses-01_task-RDMcolor_run-06_bold.nii.gz",
        "ses-01/func/sub-8007_ses-01_task-RDMmotion_run-06_bold.nii.gz",
        "ses-01/func/sub-8007_ses-01_task-RDMlocalizer_run-01_bold.nii.gz",
        "ses-01/func/sub-8007_ses-01_task-RDMcolor_run-05_bold.nii.gz",
        "ses-01/func/sub-8007_ses-01_task-RDMlocalizer_run-02_bold.nii.gz",
        "ses-01/func/sub-8007_ses-01_task-RDMcolor_run-01_bold.nii.gz"
    ],
    "MRAcquisitionType": "2D",
    "MagneticFieldStrength": 3,
    "Manufacturer": "Siemens",
    "ManufacturersModelName": "Prisma_fit",
    "Modality": "MR",
    "MultibandAccelerationFactor": 2,
    "PartialFourier": 1,
    "PatientPosition": "HFS",
    "PercentPhaseFOV": 100,
    "PhaseEncodingDirection": "j-",
    "PhaseEncodingSteps": 88,
    "PhaseResolution": 1,
    "PixelBandwidth": 600,
    "ProcedureStepDescription": "ASHENHAV_1222",
    "ProtocolName": "fmap_acq-greAP",
    "PulseSequenceDetails": "%SiemensSeq%_gre_field_mapping",
    "ReceiveCoilActiveElements": "HC1-7;NC1",
    "ReceiveCoilName": "HeadNeck_64",
    "ReconMatrixPE": 88,
    "RepetitionTime": 0.588,
    "SAR": 0.10223,
    "ScanningSequence": "GR",
    "SequenceName": "_fm2d2r",
    "SequenceVariant": "SP",
    "SeriesDescription": "fmap_acq-greAP",
    "SeriesNumber": 22,
    "ShimSetting": [
        1747,
        -9098,
        4389,
        591,
        -72,
        -377,
        -51,
        -2
    ],
    "SliceThickness": 2.4,
    "SliceTiming": [
        0.28125,
        0,
        0.29688,
        0,
        0.3125,
        0.01562,
        0.3125,
        0.01562,
        0.32812,
        0.03125,
        0.34375,
        0.04688,
        0.34375,
        0.04688,
        0.35938,
        0.0625,
        0.375,
        0.07812,
        0.375,
        0.07812,
        0.39062,
        0.09375,
        0.39062,
        0.10938,
        0.40625,
        0.10938,
        0.42188,
        0.125,
        0.42188,
        0.125,
        0.4375,
        0.14062,
        0.4375,
        0.15625,
        0.45312,
        0.15625,
        0.46875,
        0.17188,
        0.46875,
        0.1875,
        0.48438,
        0.1875,
        0.5,
        0.20312,
        0.5,
        0.20312,
        0.51562,
        0.21875,
        0.51562,
        0.23438,
        0.53125,
        0.23438,
        0.54688,
        0.25,
        0.54688,
        0.26562,
        0.5625,
        0.26562,
        0.57812,
        0.28125
    ],
    "SoftwareVersions": "syngo_MR_E11",
    "SpacingBetweenSlices": 2.4,
    "StationName": "AWP67050",
    "TxRefAmp": 219.976,
    "dcmmeta_affine": [
        [
            -2.395998239517212,
            -0.08660116046667099,
            -0.028110414743423462,
            110.64280700683594
        ],
        [
            -0.08095309138298035,
            2.3650145530700684,
            -0.38669300079345703,
            -83.27788543701172
        ],
        [
            -0.041654013097286224,
            0.385100394487381,
            2.3684768676757812,
            -83.15604400634766
        ],
        [
            0.0,
            0.0,
            0.0,
            1.0
        ]
    ],
    "dcmmeta_reorient_transform": [
        [
            0.0,
            -1.0,
            0.0,
            87.0
        ],
        [
            1.0,
            0.0,
            0.0,
            0.0
        ],
        [
            0.0,
            0.0,
            -1.0,
            59.0
        ],
        [
            0.0,
            0.0,
            0.0,
            1.0
        ]
    ],
    "dcmmeta_shape": [
        88,
        88,
        60
    ],
    "dcmmeta_slice_dim": 2,
    "dcmmeta_version": 0.6,
    "global": {
        "const": {
            "AcquisitionMatrix": [
                88,
                0,
                0,
                88
            ],
            "AcquisitionNumber": 1,
            "AngioFlag": "N",
            "BitsAllocated": 16,
            "BitsStored": 12,
            "BodyPartExamined": "BRAIN",
            "Columns": 88,
            "DeidentificationMethodCodeSequence": [
                {
                    "CodeMeaning": "XNAT DicomEdit 6 Script",
                    "CodeValue": "3",
                    "CodingSchemeDesignator": "XNAT",
                    "CodingSchemeVersion": "1.0"
                }
            ],
            "EchoNumbers": 2,
            "EchoTime": 7.38,
            "EchoTrainLength": 0,
            "FlipAngle": 60.0,
            "HighBit": 11,
            "ImageOrientationPatient": [
                0.99927889097391,
                0.03376242849437,
                -0.0173722904685,
                -0.0361180196372,
                0.98635679466237,
                -0.1606105920569
            ],
            "ImageType": [
                "ORIGINAL",
                "PRIMARY",
                "P",
                "ND"
            ],
            "ImagedNucleus": "1H",
            "ImagingFrequency": 123.250013,
            "InPlanePhaseEncodingDirection": "COL",
            "MRAcquisitionType": "2D",
            "MagneticFieldStrength": 3.0,
            "Manufacturer": "SIEMENS",
            "ManufacturerModelName": "Prisma_fit",
            "Modality": "MR",
            "NumberOfAverages": 1.0,
            "NumberOfPhaseEncodingSteps": 88,
            "PercentPhaseFieldOfView": 100.0,
            "PercentSampling": 100.0,
            "PerformedProcedureStepStartTime": "150517.931000",
            "PhotometricInterpretation": "MONOCHROME2",
            "PixelBandwidth": 600.0,
            "PixelRepresentation": 0,
            "PixelSpacing": [
                2.3977272510529,
                2.3977272510529
            ],
            "ProtocolName": "fmap_acq-greAP",
            "RepetitionTime": 588.0,
            "RescaleIntercept": -4096.0,
            "RescaleSlope": 2.0,
            "RescaleType": "US",
            "Rows": 88,
            "SAR": 0.10223002041059,
            "SamplesPerPixel": 1,
            "ScanningSequence": "GR",
            "SequenceName": "*fm2d2r",
            "SequenceVariant": "SP",
            "SeriesDescription": "fmap_acq-greAP",
            "SeriesNumber": 22,
            "SeriesTime": "164319.121000",
            "SliceThickness": 2.4000000953674,
            "SoftwareVersions": "syngo MR E11",
            "SpacingBetweenSlices": 2.4,
            "SpecificCharacterSet": "ISO_IR 100",
            "StudyID": "1",
            "StudyTime": "150517.870000",
            "TransmitCoilName": "Body",
            "VariableFlipAngleFlag": "N",
            "WindowCenterWidthExplanation": "Algo1",
            "dBdt": 0.0
        },
        "slices": {
            "AcquisitionTime": [
                "164135.287500",
                "164134.995000",
                "164135.297500",
                "164135.005000",
                "164135.307500",
                "164135.015000",
                "164135.317500",
                "164135.022500",
                "164135.327500",
                "164135.032500",
                "164135.337500",
                "164135.042500",
                "164135.347500",
                "164135.052500",
                "164135.357500",
                "164135.062500",
                "164135.367500",
                "164135.072500",
                "164135.377500",
                "164135.082500",
                "164135.387500",
                "164135.092500",
                "164135.395000",
                "164135.102500",
                "164135.405000",
                "164135.112500",
                "164135.415000",
                "164135.122500",
                "164135.425000",
                "164135.132500",
                "164135.435000",
                "164135.142500",
                "164135.445000",
                "164135.150000",
                "164135.455000",
                "164135.160000",
                "164135.465000",
                "164135.170000",
                "164135.475000",
                "164135.180000",
                "164135.485000",
                "164135.190000",
                "164135.495000",
                "164135.200000",
                "164135.505000",
                "164135.210000",
                "164135.512500",
                "164135.220000",
                "164135.522500",
                "164135.230000",
                "164135.532500",
                "164135.240000",
                "164135.542500",
                "164135.250000",
                "164135.552500",
                "164135.260000",
                "164135.562500",
                "164135.267500",
                "164135.572500",
                "164135.277500"
            ],
            "ContentTime": [
                "164319.183000",
                "164319.123000",
                "164319.185000",
                "164319.128000",
                "164319.187000",
                "164319.130000",
                "164319.189000",
                "164319.132000",
                "164319.191000",
                "164319.134000",
                "164319.193000",
                "164319.136000",
                "164319.194000",
                "164319.138000",
                "164319.196000",
                "164319.140000",
                "164319.198000",
                "164319.142000",
                "164319.200000",
                "164319.144000",
                "164319.202000",
                "164319.146000",
                "164319.204000",
                "164319.147000",
                "164319.206000",
                "164319.149000",
                "164319.208000",
                "164319.151000",
                "164319.210000",
                "164319.153000",
                "164319.212000",
                "164319.155000",
                "164319.213000",
                "164319.157000",
                "164319.232000",
                "164319.159000",
                "164319.234000",
                "164319.161000",
                "164319.243000",
                "164319.163000",
                "164319.245000",
                "164319.164000",
                "164319.253000",
                "164319.166000",
                "164319.255000",
                "164319.168000",
                "164319.257000",
                "164319.170000",
                "164319.259000",
                "164319.172000",
                "164319.261000",
                "164319.174000",
                "164319.263000",
                "164319.176000",
                "164319.265000",
                "164319.178000",
                "164319.267000",
                "164319.179000",
                "164319.269000",
                "164319.181000"
            ],
            "CsaImage.GSWDDataType": [
                "predicted",
                "predicted",
                "predicted",
                "predicted",
                "predicted",
                "predicted",
                "predicted",
                "predicted",
                "predicted",
                "predicted",
                "predicted",
                "predicted",
                "predicted",
                "predicted",
                "predicted",
                "predicted",
                "predicted",
                "predicted",
                "predicted",
                "predicted",
                "predicted",
                "predicted",
                "predicted",
                "predicted",
                "predicted",
                "predicted",
                "predicted",
                "predicted",
                "measured",
                "predicted",
                "measured",
                "predicted",
                "measured",
                "predicted",
                "measured",
                "predicted",
                "measured",
                "predicted",
                "measured",
                "predicted",
                "measured",
                "predicted",
                "measured",
                "predicted",
                "measured",
                "predicted",
                "measured",
                "predicted",
                "measured",
                "predicted",
                "measured",
                "predicted",
                "measured",
                "predicted",
                "measured",
                "predicted",
                "measured",
                "predicted",
                "measured",
                "predicted"
            ],
            "CsaImage.ICE_Dims": [
                "X_2_1_1_1_1_1_31_1_1_1_1_219",
                "X_2_1_1_1_1_1_1_1_1_2_1_219",
                "X_2_1_1_1_1_1_32_1_1_3_1_219",
                "X_2_1_1_1_1_1_2_1_1_4_1_219",
                "X_2_1_1_1_1_1_33_1_1_5_1_219",
                "X_2_1_1_1_1_1_3_1_1_6_1_219",
                "X_2_1_1_1_1_1_34_1_1_7_1_219",
                "X_2_1_1_1_1_1_4_1_1_8_1_219",
                "X_2_1_1_1_1_1_35_1_1_9_1_219",
                "X_2_1_1_1_1_1_5_1_1_10_1_219",
                "X_2_1_1_1_1_1_36_1_1_11_1_219",
                "X_2_1_1_1_1_1_6_1_1_12_1_219",
                "X_2_1_1_1_1_1_37_1_1_13_1_219",
                "X_2_1_1_1_1_1_7_1_1_14_1_219",
                "X_2_1_1_1_1_1_38_1_1_15_1_219",
                "X_2_1_1_1_1_1_8_1_1_16_1_219",
                "X_2_1_1_1_1_1_39_1_1_17_1_219",
                "X_2_1_1_1_1_1_9_1_1_18_1_219",
                "X_2_1_1_1_1_1_40_1_1_19_1_219",
                "X_2_1_1_1_1_1_10_1_1_20_1_219",
                "X_2_1_1_1_1_1_41_1_1_21_1_219",
                "X_2_1_1_1_1_1_11_1_1_22_1_219",
                "X_2_1_1_1_1_1_42_1_1_23_1_219",
                "X_2_1_1_1_1_1_12_1_1_24_1_219",
                "X_2_1_1_1_1_1_43_1_1_25_1_219",
                "X_2_1_1_1_1_1_13_1_1_26_1_219",
                "X_2_1_1_1_1_1_44_1_1_27_1_219",
                "X_2_1_1_1_1_1_14_1_1_28_1_219",
                "X_2_1_1_1_1_1_45_1_1_29_1_219",
                "X_2_1_1_1_1_1_15_1_1_30_1_219",
                "X_2_1_1_1_1_1_46_1_1_31_1_219",
                "X_2_1_1_1_1_1_16_1_1_32_1_219",
                "X_2_1_1_1_1_1_47_1_1_33_1_219",
                "X_2_1_1_1_1_1_17_1_1_34_1_219",
                "X_2_1_1_1_1_1_48_1_1_35_1_219",
                "X_2_1_1_1_1_1_18_1_1_36_1_219",
                "X_2_1_1_1_1_1_49_1_1_37_1_219",
                "X_2_1_1_1_1_1_19_1_1_38_1_219",
                "X_2_1_1_1_1_1_50_1_1_39_1_219",
                "X_2_1_1_1_1_1_20_1_1_40_1_219",
                "X_2_1_1_1_1_1_51_1_1_41_1_219",
                "X_2_1_1_1_1_1_21_1_1_42_1_219",
                "X_2_1_1_1_1_1_52_1_1_43_1_219",
                "X_2_1_1_1_1_1_22_1_1_44_1_219",
                "X_2_1_1_1_1_1_53_1_1_45_1_219",
                "X_2_1_1_1_1_1_23_1_1_46_1_219",
                "X_2_1_1_1_1_1_54_1_1_47_1_219",
                "X_2_1_1_1_1_1_24_1_1_48_1_219",
                "X_2_1_1_1_1_1_55_1_1_49_1_219",
                "X_2_1_1_1_1_1_25_1_1_50_1_219",
                "X_2_1_1_1_1_1_56_1_1_51_1_219",
                "X_2_1_1_1_1_1_26_1_1_52_1_219",
                "X_2_1_1_1_1_1_57_1_1_53_1_219",
                "X_2_1_1_1_1_1_27_1_1_54_1_219",
                "X_2_1_1_1_1_1_58_1_1_55_1_219",
                "X_2_1_1_1_1_1_28_1_1_56_1_219",
                "X_2_1_1_1_1_1_59_1_1_57_1_219",
                "X_2_1_1_1_1_1_29_1_1_58_1_219",
                "X_2_1_1_1_1_1_60_1_1_59_1_219",
                "X_2_1_1_1_1_1_30_1_1_60_1_219"
            ],
            "CsaImage.ProtocolSliceNumber": [
                0,
                1,
                2,
                3,
                4,
                5,
                6,
                7,
                8,
                9,
                10,
                11,
                12,
                13,
                14,
                15,
                16,
                17,
                18,
                19,
                20,
                21,
                22,
                23,
                24,
                25,
                26,
                27,
                28,
                29,
                30,
                31,
                32,
                33,
                34,
                35,
                36,
                37,
                38,
                39,
                40,
                41,
                42,
                43,
                44,
                45,
                46,
                47,
                48,
                49,
                50,
                51,
                52,
                53,
                54,
                55,
                56,
                57,
                58,
                59
            ],
            "CsaImage.RFSWDDataType": [
                "predicted",
                "predicted",
                "predicted",
                "predicted",
                "predicted",
                "predicted",
                "predicted",
                "predicted",
                "predicted",
                "predicted",
                "predicted",
                "predicted",
                "predicted",
                "predicted",
                "predicted",
                "predicted",
                "predicted",
                "predicted",
                "predicted",
                "predicted",
                "predicted",
                "predicted",
                "predicted",
                "predicted",
                "measured",
                "predicted",
                "measured",
                "predicted",
                "measured",
                "predicted",
                "measured",
                "predicted",
                "measured",
                "predicted",
                "measured",
                "predicted",
                "measured",
                "predicted",
                "measured",
                "predicted",
                "measured",
                "predicted",
                "measured",
                "predicted",
                "measured",
                "predicted",
                "measured",
                "predicted",
                "measured",
                "predicted",
                "measured",
                "predicted",
                "measured",
                "predicted",
                "measured",
                "predicted",
                "measured",
                "predicted",
                "measured",
                "predicted"
            ],
            "CsaImage.SliceMeasurementDuration": [
                102312.5,
                102312.5,
                102312.5,
                102310.0,
                102312.5,
                102310.0,
                102312.5,
                102312.5,
                102312.5,
                102312.5,
                102312.5,
                102312.5,
                102312.5,
                102312.5,
                102312.5,
                102312.5,
                102310.0,
                102312.5,
                102310.0,
                102312.5,
                102310.0,
                102312.5,
                102312.5,
                102312.5,
                102312.5,
                102312.5,
                102312.5,
                102310.0,
                102312.5,
                102310.0,
                102312.5,
                102310.0,
                102312.5,
                102312.5,
                102312.5,
                102312.5,
                102312.5,
                102312.5,
                102312.5,
                102312.5,
                102312.5,
                102312.5,
                102310.0,
                102312.5,
                102310.0,
                102312.5,
                102312.5,
                102312.5,
                102312.5,
                102312.5,
                102312.5,
                102312.5,
                102312.5,
                102310.0,
                102312.5,
                102310.0,
                102312.5,
                102312.5,
                102312.5,
                102312.5
            ],
            "CsaImage.SlicePosition_PCS": [
                [
                    -103.10850594,
                    -122.4784044,
                    -49.65225705
                ],
                [
                    -103.08039556,
                    -122.09171045,
                    -47.28378018
                ],
                [
                    -103.05228517,
                    -121.70501745,
                    -44.91530332
                ],
                [
                    -103.02417467,
                    -121.31832445,
                    -42.54682645
                ],
                [
                    -102.99606428,
                    -120.93163049,
                    -40.1783534
                ],
                [
                    -102.9679539,
                    -120.54493749,
                    -37.80987653
                ],
                [
                    -102.93984339,
                    -120.15824449,
                    -35.44139966
                ],
                [
                    -102.91173301,
                    -119.77155054,
                    -33.07292279
                ],
                [
                    -102.88362262,
                    -119.38485753,
                    -30.70444974
                ],
                [
                    -102.85551224,
                    -118.99816358,
                    -28.33597287
                ],
                [
                    -102.82740173,
                    -118.61147058,
                    -25.967496
                ],
                [
                    -102.79929135,
                    -118.22477758,
                    -23.59901914
                ],
                [
                    -102.77118096,
                    -117.83808362,
                    -21.23054608
                ],
                [
                    -102.74307046,
                    -117.45139062,
                    -18.86206922
                ],
                [
                    -102.71496007,
                    -117.06469762,
                    -16.49359235
                ],
                [
                    -102.68684969,
                    -116.67800367,
                    -14.12511548
                ],
                [
                    -102.65873919,
                    -116.29131067,
                    -11.75664052
                ],
                [
                    -102.6306288,
                    -115.90461767,
                    -9.38816556
                ],
                [
                    -102.60251842,
                    -115.51792371,
                    -7.01968869
                ],
                [
                    -102.57440797,
                    -115.13123071,
                    -4.65121373
                ],
                [
                    -102.54629753,
                    -114.74453723,
                    -2.28273686
                ],
                [
                    -102.51818714,
                    -114.35784376,
                    0.0857381
                ],
                [
                    -102.4900767,
                    -113.97115075,
                    2.45421496
                ],
                [
                    -102.46196631,
                    -113.58445728,
                    4.82269088
                ],
                [
                    -102.43385587,
                    -113.1977638,
                    7.19116584
                ],
                [
                    -102.40574542,
                    -112.81107032,
                    9.55964175
                ],
                [
                    -102.37763504,
                    -112.42437732,
                    11.92811814
                ],
                [
                    -102.34952459,
                    -112.03768384,
                    14.29659406
                ],
                [
                    -102.32141415,
                    -111.65099037,
                    16.66506997
                ],
                [
                    -102.29330376,
                    -111.26429713,
                    19.03354577
                ],
                [
                    -102.26519332,
                    -110.87760365,
                    21.40202156
                ],
                [
                    -102.23708293,
                    -110.49091041,
                    23.77049771
                ],
                [
                    -102.20897249,
                    -110.10421717,
                    26.13897363
                ],
                [
                    -102.18086205,
                    -109.71752369,
                    28.50744906
                ],
                [
                    -102.15275166,
                    -109.33083033,
                    30.87592498
                ],
                [
                    -102.12464122,
                    -108.94413698,
                    33.24440089
                ],
                [
                    -102.0965308,
                    -108.55744368,
                    35.61287776
                ],
                [
                    -102.06842039,
                    -108.17075032,
                    37.98135272
                ],
                [
                    -102.04030997,
                    -107.78405699,
                    40.34982959
                ],
                [
                    -102.01219953,
                    -107.39736365,
                    42.71830455
                ],
                [
                    -101.98408911,
                    -107.0106703,
                    45.08678142
                ],
                [
                    -101.9559787,
                    -106.62397694,
                    47.45525638
                ],
                [
                    -101.92786828,
                    -106.23728359,
                    49.82373324
                ],
                [
                    -101.89975787,
                    -105.85059023,
                    52.19221011
                ],
                [
                    -101.87164742,
                    -105.46389687,
                    54.56068316
                ],
                [
                    -101.84353701,
                    -105.07720363,
                    56.92916003
                ],
                [
                    -101.81542659,
                    -104.69051015,
                    59.2976369
                ],
                [
                    -101.78731616,
                    -104.30381691,
                    61.66611377
                ],
                [
                    -101.75920575,
                    -103.91712344,
                    64.03458682
                ],
                [
                    -101.73109533,
                    -103.5304302,
                    66.40306369
                ],
                [
                    -101.70298491,
                    -103.14373672,
                    68.77154056
                ],
                [
                    -101.67487448,
                    -102.75704324,
                    71.14001361
                ],
                [
                    -101.64676406,
                    -102.37035024,
                    73.50849048
                ],
                [
                    -101.61865364,
                    -101.98365676,
                    75.87696734
                ],
                [
                    -101.59054322,
                    -101.59696329,
                    78.24544421
                ],
                [
                    -101.5624328,
                    -101.21027028,
                    80.61391726
                ],
                [
                    -101.53432238,
                    -100.82357681,
                    82.98239413
                ],
                [
                    -101.50621196,
                    -100.43688333,
                    85.350871
                ],
                [
                    -101.47810153,
                    -100.05018985,
                    87.71934787
                ],
                [
