{
    "AcquisitionMatrixPE": 88,
    "AcquisitionNumber": 1,
    "AcquisitionTime": "16:43:20.455000",
    "BaseResolution": 88,
    "BodyPartExamined": "BRAIN",
    "ConsistencyInfo": "N4_VE11C_LATEST_20160120",
    "ConversionSoftware": "dcm2niix",
    "ConversionSoftwareVersion": "v1.0.20190902",
    "DeviceSerialNumber": "67050",
    "DwellTime": 9.5e-06,
    "EchoNumber": 2,
    "EchoTime": 0.00738,
    "EchoTime1": 0.00492,
    "EchoTime2": 0.00738,
    "FlipAngle": 60,
    "ImageOrientationPatientDICOM": [
        0.998772,
        0.0187583,
        0.0458536,
        -0.0106338,
        0.985146,
        -0.17139
    ],
    "ImageType": [
        "ORIGINAL",
        "PRIMARY",
        "P",
        "ND"
    ],
    "ImagingFrequency": 123.251,
    "InPlanePhaseEncodingDirectionDICOM": "COL",
    "InstitutionAddress": "Olive_Street_60_Providence_RI_US_02912",
    "InstitutionName": "BROWN_UNIVERSITY_MRF",
    "InstitutionalDepartmentName": "Department",
    "IntendedFor": [
        "ses-01/func/sub-8020_ses-01_task-RDMcolor_run-06_bold.nii.gz",
        "ses-01/func/sub-8020_ses-01_task-RDMmotion_run-04_bold.nii.gz",
        "ses-01/func/sub-8020_ses-01_task-RDMcolor_run-03_bold.nii.gz",
        "ses-01/func/sub-8020_ses-01_task-RDMlocalizer_run-01_bold.nii.gz",
        "ses-01/func/sub-8020_ses-01_task-RDMcolor_run-04_bold.nii.gz",
        "ses-01/func/sub-8020_ses-01_task-RDMcolor_run-05_bold.nii.gz",
        "ses-01/func/sub-8020_ses-01_task-RDMmotion_run-05_bold.nii.gz",
        "ses-01/func/sub-8020_ses-01_task-RDMcolor_run-02_bold.nii.gz",
        "ses-01/func/sub-8020_ses-01_task-RDMmotion_run-06_bold.nii.gz",
        "ses-01/func/sub-8020_ses-01_task-RDMmotion_run-03_bold.nii.gz",
        "ses-01/func/sub-8020_ses-01_task-RDMmotion_run-02_bold.nii.gz",
        "ses-01/func/sub-8020_ses-01_task-RDMmotion_run-01_bold.nii.gz",
        "ses-01/func/sub-8020_ses-01_task-RDMlocalizer_run-02_bold.nii.gz",
        "ses-01/func/sub-8020_ses-01_task-RDMcolor_run-01_bold.nii.gz"
    ],
    "MRAcquisitionType": "2D",
    "MagneticFieldStrength": 3,
    "Manufacturer": "Siemens",
    "ManufacturersModelName": "Prisma_fit",
    "Modality": "MR",
    "PartialFourier": 1,
    "PatientPosition": "HFS",
    "PercentPhaseFOV": 100,
    "PhaseEncodingDirection": "j-",
    "PhaseEncodingSteps": 88,
    "PhaseResolution": 1,
    "PixelBandwidth": 600,
    "ProcedureStepDescription": "ASHENHAV_1222",
    "ProtocolName": "fmap_acq-greAP",
    "PulseSequenceDetails": "%SiemensSeq%_gre_field_mapping",
    "ReceiveCoilActiveElements": "HC1-7",
    "ReceiveCoilName": "HeadNeck_64",
    "ReconMatrixPE": 88,
    "RepetitionTime": 0.588,
    "SAR": 0.141985,
    "ScanningSequence": "GR",
    "SequenceName": "_fm2d2r",
    "SequenceVariant": "SP",
    "SeriesDescription": "fmap_acq-greAP",
    "SeriesNumber": 22,
    "ShimSetting": [
        1769,
        -9091,
        4399,
        428,
        -70,
        -249,
        43,
        12
    ],
    "SliceThickness": 2.4,
    "SliceTiming": [
        0.29688,
        0,
        0.3125,
        0.01562,
        0.3125,
        0.03125,
        0.32812,
        0.03125,
        0.34375,
        0.04688,
        0.34375,
        0.04688,
        0.35938,
        0.0625,
        0.35938,
        0.07812,
        0.375,
        0.07812,
        0.39062,
        0.09375,
        0.39062,
        0.09375,
        0.40625,
        0.10938,
        0.42188,
        0.125,
        0.42188,
        0.125,
        0.4375,
        0.14062,
        0.45312,
        0.15625,
        0.45312,
        0.15625,
        0.46875,
        0.17188,
        0.46875,
        0.1875,
        0.48438,
        0.1875,
        0.5,
        0.20312,
        0.5,
        0.20312,
        0.51562,
        0.21875,
        0.53125,
        0.23438,
        0.53125,
        0.23438,
        0.54688,
        0.25,
        0.54688,
        0.26562,
        0.5625,
        0.26562,
        0.57812,
        0.28125,
        0.57812,
        0.28125
    ],
    "SoftwareVersions": "syngo_MR_E11",
    "SpacingBetweenSlices": 2.4,
    "StationName": "AWP67050",
    "TxRefAmp": 254.149,
    "dcmmeta_affine": [
        [
            -2.3947830200195312,
            -0.025497065857052803,
            0.11612987518310547,
            107.5871353149414
        ],
        [
            -0.044977251440286636,
            2.3621110916137695,
            -0.40966081619262695,
            -80.81846618652344
        ],
        [
            0.1099444031715393,
            0.41094696521759033,
            2.3619232177734375,
            -80.87615966796875
        ],
        [
            0.0,
            0.0,
            0.0,
            1.0
        ]
    ],
    "dcmmeta_reorient_transform": [
        [
            0.0,
            -1.0,
            0.0,
            87.0
        ],
        [
            1.0,
            0.0,
            0.0,
            0.0
        ],
        [
            0.0,
            0.0,
            -1.0,
            59.0
        ],
        [
            0.0,
            0.0,
            0.0,
            1.0
        ]
    ],
    "dcmmeta_shape": [
        88,
        88,
        60
    ],
    "dcmmeta_slice_dim": 2,
    "dcmmeta_version": 0.6,
    "global": {
        "const": {
            "AcquisitionMatrix": [
                88,
                0,
                0,
                88
            ],
            "AcquisitionNumber": 1,
            "AngioFlag": "N",
            "BitsAllocated": 16,
            "BitsStored": 12,
            "BodyPartExamined": "BRAIN",
            "Columns": 88,
            "DeidentificationMethodCodeSequence": [
                {
                    "CodeMeaning": "XNAT DicomEdit 6 Script",
                    "CodeValue": "3",
                    "CodingSchemeDesignator": "XNAT",
                    "CodingSchemeVersion": "1.0"
                }
            ],
            "EchoNumbers": 2,
            "EchoTime": 7.38,
            "EchoTrainLength": 0,
            "FlipAngle": 60.0,
            "HighBit": 11,
            "ImageOrientationPatient": [
                0.9987720334877,
                0.01875828505795,
                0.0458535916209,
                -0.0106338477364,
                0.98514583556415,
                -0.1713902096181
            ],
            "ImageType": [
                "ORIGINAL",
                "PRIMARY",
                "P",
                "ND"
            ],
            "ImagedNucleus": "1H",
            "ImagingFrequency": 123.250722,
            "InPlanePhaseEncodingDirection": "COL",
            "MRAcquisitionType": "2D",
            "MagneticFieldStrength": 3.0,
            "Manufacturer": "SIEMENS",
            "ManufacturerModelName": "Prisma_fit",
            "Modality": "MR",
            "NumberOfAverages": 1.0,
            "NumberOfPhaseEncodingSteps": 88,
            "PercentPhaseFieldOfView": 100.0,
            "PercentSampling": 100.0,
            "PerformedProcedureStepStartTime": "151453.303000",
            "PhotometricInterpretation": "MONOCHROME2",
            "PixelBandwidth": 600.0,
            "PixelRepresentation": 0,
            "PixelSpacing": [
                2.3977272510529,
                2.3977272510529
            ],
            "ProtocolName": "fmap_acq-greAP",
            "RepetitionTime": 588.0,
            "RescaleIntercept": -4096.0,
            "RescaleSlope": 2.0,
            "RescaleType": "US",
            "Rows": 88,
            "SAR": 0.14198509800093,
            "SamplesPerPixel": 1,
            "ScanningSequence": "GR",
            "SequenceName": "*fm2d2r",
            "SequenceVariant": "SP",
            "SeriesDescription": "fmap_acq-greAP",
            "SeriesNumber": 22,
            "SeriesTime": "164504.177000",
            "SliceThickness": 2.4000000953674,
            "SoftwareVersions": "syngo MR E11",
            "SpacingBetweenSlices": 2.4,
            "SpecificCharacterSet": "ISO_IR 100",
            "StudyID": "1",
            "StudyTime": "151453.174000",
            "TransmitCoilName": "Body",
            "VariableFlipAngleFlag": "N",
            "WindowCenterWidthExplanation": "Algo1",
            "dBdt": 0.0
        },
        "slices": {
            "AcquisitionTime": [
                "164320.455000",
                "164320.160000",
                "164320.465000",
                "164320.170000",
                "164320.475000",
                "164320.180000",
                "164320.482500",
                "164320.190000",
                "164320.492500",
                "164320.200000",
                "164320.502500",
                "164320.210000",
                "164320.512500",
                "164320.220000",
                "164320.522500",
                "164320.230000",
                "164320.532500",
                "164320.237500",
                "164320.542500",
                "164320.247500",
                "164320.552500",
                "164320.257500",
                "164320.562500",
                "164320.267500",
                "164320.572500",
                "164320.277500",
                "164320.582500",
                "164320.287500",
                "164320.592500",
                "164320.297500",
                "164320.602500",
                "164320.307500",
                "164320.610000",
                "164320.317500",
                "164320.620000",
                "164320.327500",
                "164320.630000",
                "164320.337500",
                "164320.640000",
                "164320.347500",
                "164320.650000",
                "164320.357500",
                "164320.660000",
                "164320.365000",
                "164320.670000",
                "164320.375000",
                "164320.680000",
                "164320.385000",
                "164320.690000",
                "164320.395000",
                "164320.700000",
                "164320.405000",
                "164320.710000",
                "164320.415000",
                "164320.720000",
                "164320.425000",
                "164320.727500",
                "164320.435000",
                "164320.737500",
                "164320.445000"
            ],
            "ContentTime": [
                "164504.322000",
                "164504.179000",
                "164504.324000",
                "164504.181000",
                "164504.326000",
                "164504.183000",
                "164504.328000",
                "164504.185000",
                "164504.330000",
                "164504.187000",
                "164504.331000",
                "164504.189000",
                "164504.333000",
                "164504.190000",
                "164504.335000",
                "164504.192000",
                "164504.337000",
                "164504.194000",
                "164504.339000",
                "164504.196000",
                "164504.341000",
                "164504.198000",
                "164504.343000",
                "164504.200000",
                "164504.344000",
                "164504.202000",
                "164504.346000",
                "164504.204000",
                "164504.348000",
                "164504.291000",
                "164504.350000",
                "164504.293000",
                "164504.352000",
                "164504.296000",
                "164504.354000",
                "164504.297000",
                "164504.356000",
                "164504.299000",
                "164504.358000",
                "164504.301000",
                "164504.359000",
                "164504.303000",
                "164504.361000",
                "164504.305000",
                "164504.363000",
                "164504.307000",
                "164504.365000",
                "164504.309000",
                "164504.367000",
                "164504.311000",
                "164504.369000",
                "164504.313000",
                "164504.371000",
                "164504.315000",
                "164504.372000",
                "164504.316000",
                "164504.374000",
                "164504.318000",
                "164504.376000",
                "164504.320000"
            ],
            "CsaImage.GSWDDataType": [
                "predicted",
                "predicted",
                "predicted",
                "predicted",
                "predicted",
                "predicted",
                "predicted",
                "predicted",
                "predicted",
                "predicted",
                "predicted",
                "predicted",
                "predicted",
                "predicted",
                "predicted",
                "predicted",
                "predicted",
                "predicted",
                "predicted",
                "predicted",
                "predicted",
                "predicted",
                "predicted",
                "predicted",
                "predicted",
                "predicted",
                "predicted",
                "predicted",
                "predicted",
                "predicted",
                "measured",
                "predicted",
                "measured",
                "predicted",
                "measured",
                "predicted",
                "measured",
                "predicted",
                "measured",
                "predicted",
                "measured",
                "predicted",
                "measured",
                "predicted",
                "measured",
                "predicted",
                "measured",
                "predicted",
                "measured",
                "predicted",
                "measured",
                "predicted",
                "measured",
                "predicted",
                "measured",
                "predicted",
                "measured",
                "predicted",
                "measured",
                "predicted"
            ],
            "CsaImage.ICE_Dims": [
                "X_2_1_1_1_1_1_31_1_1_1_1_732",
                "X_2_1_1_1_1_1_1_1_1_2_1_732",
                "X_2_1_1_1_1_1_32_1_1_3_1_732",
                "X_2_1_1_1_1_1_2_1_1_4_1_732",
                "X_2_1_1_1_1_1_33_1_1_5_1_732",
                "X_2_1_1_1_1_1_3_1_1_6_1_732",
                "X_2_1_1_1_1_1_34_1_1_7_1_732",
                "X_2_1_1_1_1_1_4_1_1_8_1_732",
                "X_2_1_1_1_1_1_35_1_1_9_1_732",
                "X_2_1_1_1_1_1_5_1_1_10_1_732",
                "X_2_1_1_1_1_1_36_1_1_11_1_732",
                "X_2_1_1_1_1_1_6_1_1_12_1_732",
                "X_2_1_1_1_1_1_37_1_1_13_1_732",
                "X_2_1_1_1_1_1_7_1_1_14_1_732",
                "X_2_1_1_1_1_1_38_1_1_15_1_732",
                "X_2_1_1_1_1_1_8_1_1_16_1_732",
                "X_2_1_1_1_1_1_39_1_1_17_1_732",
                "X_2_1_1_1_1_1_9_1_1_18_1_732",
                "X_2_1_1_1_1_1_40_1_1_19_1_732",
                "X_2_1_1_1_1_1_10_1_1_20_1_732",
                "X_2_1_1_1_1_1_41_1_1_21_1_732",
                "X_2_1_1_1_1_1_11_1_1_22_1_732",
                "X_2_1_1_1_1_1_42_1_1_23_1_732",
                "X_2_1_1_1_1_1_12_1_1_24_1_732",
                "X_2_1_1_1_1_1_43_1_1_25_1_732",
                "X_2_1_1_1_1_1_13_1_1_26_1_732",
                "X_2_1_1_1_1_1_44_1_1_27_1_732",
                "X_2_1_1_1_1_1_14_1_1_28_1_732",
                "X_2_1_1_1_1_1_45_1_1_29_1_732",
                "X_2_1_1_1_1_1_15_1_1_30_1_732",
                "X_2_1_1_1_1_1_46_1_1_31_1_732",
                "X_2_1_1_1_1_1_16_1_1_32_1_732",
                "X_2_1_1_1_1_1_47_1_1_33_1_732",
                "X_2_1_1_1_1_1_17_1_1_34_1_732",
                "X_2_1_1_1_1_1_48_1_1_35_1_732",
                "X_2_1_1_1_1_1_18_1_1_36_1_732",
                "X_2_1_1_1_1_1_49_1_1_37_1_732",
                "X_2_1_1_1_1_1_19_1_1_38_1_732",
                "X_2_1_1_1_1_1_50_1_1_39_1_732",
                "X_2_1_1_1_1_1_20_1_1_40_1_732",
                "X_2_1_1_1_1_1_51_1_1_41_1_732",
                "X_2_1_1_1_1_1_21_1_1_42_1_732",
                "X_2_1_1_1_1_1_52_1_1_43_1_732",
                "X_2_1_1_1_1_1_22_1_1_44_1_732",
                "X_2_1_1_1_1_1_53_1_1_45_1_732",
                "X_2_1_1_1_1_1_23_1_1_46_1_732",
                "X_2_1_1_1_1_1_54_1_1_47_1_732",
                "X_2_1_1_1_1_1_24_1_1_48_1_732",
                "X_2_1_1_1_1_1_55_1_1_49_1_732",
                "X_2_1_1_1_1_1_25_1_1_50_1_732",
                "X_2_1_1_1_1_1_56_1_1_51_1_732",
                "X_2_1_1_1_1_1_26_1_1_52_1_732",
                "X_2_1_1_1_1_1_57_1_1_53_1_732",
                "X_2_1_1_1_1_1_27_1_1_54_1_732",
                "X_2_1_1_1_1_1_58_1_1_55_1_732",
                "X_2_1_1_1_1_1_28_1_1_56_1_732",
                "X_2_1_1_1_1_1_59_1_1_57_1_732",
                "X_2_1_1_1_1_1_29_1_1_58_1_732",
                "X_2_1_1_1_1_1_60_1_1_59_1_732",
                "X_2_1_1_1_1_1_30_1_1_60_1_732"
            ],
            "CsaImage.ProtocolSliceNumber": [
                0,
                1,
                2,
                3,
                4,
                5,
                6,
                7,
                8,
                9,
                10,
                11,
                12,
                13,
                14,
                15,
                16,
                17,
                18,
                19,
                20,
                21,
                22,
                23,
                24,
                25,
                26,
                27,
                28,
                29,
                30,
                31,
                32,
                33,
                34,
                35,
                36,
                37,
                38,
                39,
                40,
                41,
                42,
                43,
                44,
                45,
                46,
                47,
                48,
                49,
                50,
                51,
                52,
                53,
                54,
                55,
                56,
                57,
                58,
                59
            ],
            "CsaImage.RFSWDDataType": [
                "predicted",
                "predicted",
                "predicted",
                "predicted",
                "predicted",
                "predicted",
                "predicted",
                "predicted",
                "predicted",
                "predicted",
                "predicted",
                "predicted",
                "predicted",
                "predicted",
                "predicted",
                "predicted",
                "predicted",
                "predicted",
                "predicted",
                "predicted",
                "predicted",
                "predicted",
                "predicted",
                "predicted",
                "measured",
                "predicted",
                "measured",
                "predicted",
                "measured",
                "predicted",
                "measured",
                "predicted",
                "measured",
                "predicted",
                "measured",
                "predicted",
                "measured",
                "predicted",
                "measured",
                "predicted",
                "measured",
                "predicted",
                "measured",
                "predicted",
                "measured",
                "predicted",
                "measured",
                "predicted",
                "measured",
                "predicted",
                "measured",
                "predicted",
                "measured",
                "predicted",
                "measured",
                "predicted",
                "measured",
                "predicted",
                "measured",
                "predicted"
            ],
            "CsaImage.SliceMeasurementDuration": [
                102312.5,
                102312.5,
                102310.0,
                102312.5,
                102310.0,
                102312.5,
                102312.5,
                102312.5,
                102312.5,
                102312.5,
                102312.5,
                102312.5,
                102312.5,
                102310.0,
                102312.5,
                102310.0,
                102312.5,
                102312.5,
                102312.5,
                102312.5,
                102312.5,
                102312.5,
                102312.5,
                102312.5,
                102312.5,
                102312.5,
                102310.0,
                102312.5,
                102310.0,
                102312.5,
                102310.0,
                102312.5,
                102312.5,
                102312.5,
                102312.5,
                102312.5,
                102312.5,
                102310.0,
                102312.5,
                102310.0,
                102312.5,
                102310.0,
                102312.5,
                102312.5,
                102312.5,
                102312.5,
                102312.5,
                102312.5,
                102312.5,
                102312.5,
                102312.5,
                102312.5,
                102310.0,
                102312.5,
                102310.0,
                102312.5,
                102312.5,
                102312.5,
                102312.5,
                102312.5
            ],
            "CsaImage.SlicePosition_PCS": [
                [
                    -105.36888617,
                    -124.68521064,
                    -45.12390603
                ],
                [
                    -105.48501617,
                    -124.2755503,
                    -42.76197899
                ],
                [
                    -105.60114604,
                    -123.86588996,
                    -40.40005577
                ],
                [
                    -105.71727592,
                    -123.45622772,
                    -38.03812874
                ],
                [
                    -105.83340579,
                    -123.04656738,
                    -35.67620171
                ],
                [
                    -105.94953579,
                    -122.63690513,
                    -33.31427849
                ],
                [
                    -106.06566566,
                    -122.22724479,
                    -30.95235146
                ],
                [
                    -106.18179554,
                    -121.8175835,
                    -28.59042824
                ],
                [
                    -106.29792553,
                    -121.40792221,
                    -26.22850121
                ],
                [
                    -106.41405541,
                    -120.99826091,
                    -23.86657799
                ],
                [
                    -106.53018528,
                    -120.58859962,
                    -21.50465096
                ],
                [
                    -106.64631516,
                    -120.17893928,
                    -19.14272393
                ],
                [
                    -106.76244503,
                    -119.76927799,
                    -16.78080071
                ],
                [
                    -106.87857491,
                    -119.35961669,
                    -14.41887368
                ],
                [
                    -106.99470478,
                    -118.9499554,
                    -12.05694855
                ],
                [
                    -107.1108349,
                    -118.54029411,
                    -9.69502343
                ],
                [
                    -107.22696477,
                    -118.13063281,
                    -7.3330983
                ],
                [
                    -107.34309465,
                    -117.72097248,
                    -4.97117318
                ],
                [
                    -107.45922452,
                    -117.31131118,
                    -2.60924805
                ],
                [
                    -107.5753544,
                    -116.90164989,
                    -0.24732197
                ],
                [
                    -107.69148427,
                    -116.4919886,
                    2.11460315
                ],
                [
                    -107.80761415,
                    -116.0823273,
                    4.47652828
                ],
                [
                    -107.92374402,
                    -115.67266601,
                    6.83845388
                ],
                [
                    -108.0398739,
                    -115.26300567,
                    9.20037948
                ],
                [
                    -108.15600401,
                    -114.85334438,
                    11.56230485
                ],
                [
                    -108.27213389,
                    -114.44368308,
                    13.92423021
                ],
                [
                    -108.38826376,
                    -114.03402179,
                    16.28615557
                ],
                [
                    -108.50439364,
                    -113.6243605,
                    18.64808094
                ],
                [
                    -108.62052351,
                    -113.21469968,
                    21.01000654
                ],
                [
                    -108.73665339,
                    -112.80503839,
                    23.37193214
                ],
                [
                    -108.85278326,
                    -112.3953771,
                    25.73385727
                ],
                [
                    -108.96891314,
                    -111.98571628,
                    28.09578239
                ],
                [
                    -109.08504301,
                    -111.57605499,
                    30.45770752
                ],
                [
                    -109.20117289,
                    -111.16639369,
                    32.81963264
                ],
                [
                    -109.31730276,
                    -110.75673288,
                    35.18155967
                ],
                [
                    -109.43343264,
                    -110.34707158,
                    37.5434848
                ],
                [
                    -109.54956299,
                    -109.93741029,
                    39.90540992
                ],
                [
                    -109.66569287,
                    -109.52774924,
                    42.26733505
                ],
                [
                    -109.78182274,
                    -109.11808818,
                    44.62926017
                ],
                [
                    -109.89795262,
                    -108.70842713,
                    46.99118721
                ],
                [
                    -110.01408249,
                    -108.29876583,
                    49.35311042
                ],
                [
                    -110.13021237,
                    -107.88910478,
                    51.71503746
                ],
                [
                    -110.24634224,
                    -107.47944361,
                    54.07696067
                ],
                [
                    -110.36247212,
                    -107.06978243,
                    56.43888771
                ],
                [
                    -110.47860199,
                    -106.66012132,
                    58.80081092
                ],
                [
                    -110.59473187,
                    -106.25046017,
                    61.16273796
                ],
                [
                    -110.71086174,
                    -105.84079904,
                    63.52466499
                ],
                [
                    -110.82699162,
                    -105.43113789,
                    65.88658821
                ],
                [
                    -110.94312149,
                    -105.02147674,
                    68.24851524
                ],
                [
                    -111.05925137,
                    -104.61181563,
                    70.61043846
                ],
                [
                    -111.17538124,
                    -104.20215445,
                    72.97236549
                ],
                [
                    -111.29151112,
                    -103.79249328,
                    75.33428871
                ],
                [
                    -111.40764099,
                    -103.38283223,
                    77.69621574
                ],
                [
                    -111.52377135,
                    -102.97317117,
                    80.05813896
                ],
                [
                    -111.63990122,
                    -102.56350988,
                    82.42006981
                ],
                [
                    -111.7560311,
                    -102.15384882,
                    84.78199302
                ],
                [
                    -111.87216097,
                    -101.74418777,
                    87.14391624
                ],
                [
                    -111.98829085,
                    -101.33452648,
                    89.50583946
                ],
                [
                    -112.10442072,
                    -100.92486518,
                    91.86777031
                ],
                [
                    -112.2205506,
