{
    "AcquisitionMatrixPE": 88,
    "AcquisitionNumber": 1,
    "AcquisitionTime": "16:17:40.057500",
    "BaseResolution": 88,
    "BodyPartExamined": "BRAIN",
    "ConsistencyInfo": "N4_VE11C_LATEST_20160120",
    "ConversionSoftware": "dcm2niix",
    "ConversionSoftwareVersion": "v1.0.20190902",
    "DeviceSerialNumber": "67050",
    "DwellTime": 9.5e-06,
    "EchoNumber": 2,
    "EchoTime": 0.00738,
    "EchoTime1": 0.00492,
    "EchoTime2": 0.00738,
    "FlipAngle": 60,
    "ImageOrientationPatientDICOM": [
        0.99187,
        0.0865966,
        0.0932421,
        -0.0724903,
        0.986731,
        -0.145284
    ],
    "ImageType": [
        "ORIGINAL",
        "PRIMARY",
        "P",
        "ND"
    ],
    "ImagingFrequency": 123.251,
    "InPlanePhaseEncodingDirectionDICOM": "COL",
    "InstitutionAddress": "Olive_Street_60_Providence_RI_US_02912",
    "InstitutionName": "BROWN_UNIVERSITY_MRF",
    "InstitutionalDepartmentName": "Department",
    "IntendedFor": [
        "ses-01/func/sub-8022_ses-01_task-RDMmotion_run-03_bold.nii.gz",
        "ses-01/func/sub-8022_ses-01_task-RDMmotion_run-01_bold.nii.gz",
        "ses-01/func/sub-8022_ses-01_task-RDMcolor_run-06_bold.nii.gz",
        "ses-01/func/sub-8022_ses-01_task-RDMcolor_run-05_bold.nii.gz",
        "ses-01/func/sub-8022_ses-01_task-RDMmotion_run-05_bold.nii.gz",
        "ses-01/func/sub-8022_ses-01_task-RDMmotion_run-02_bold.nii.gz",
        "ses-01/func/sub-8022_ses-01_task-RDMlocalizer_run-02_bold.nii.gz",
        "ses-01/func/sub-8022_ses-01_task-RDMlocalizer_run-01_bold.nii.gz",
        "ses-01/func/sub-8022_ses-01_task-RDMcolor_run-04_bold.nii.gz",
        "ses-01/func/sub-8022_ses-01_task-RDMcolor_run-03_bold.nii.gz",
        "ses-01/func/sub-8022_ses-01_task-RDMmotion_run-06_bold.nii.gz",
        "ses-01/func/sub-8022_ses-01_task-RDMcolor_run-02_bold.nii.gz",
        "ses-01/func/sub-8022_ses-01_task-RDMmotion_run-04_bold.nii.gz",
        "ses-01/func/sub-8022_ses-01_task-RDMcolor_run-01_bold.nii.gz"
    ],
    "MRAcquisitionType": "2D",
    "MagneticFieldStrength": 3,
    "Manufacturer": "Siemens",
    "ManufacturersModelName": "Prisma_fit",
    "Modality": "MR",
    "MultibandAccelerationFactor": 2,
    "PartialFourier": 1,
    "PatientPosition": "HFS",
    "PercentPhaseFOV": 100,
    "PhaseEncodingDirection": "j-",
    "PhaseEncodingSteps": 88,
    "PhaseResolution": 1,
    "PixelBandwidth": 600,
    "ProcedureStepDescription": "ASHENHAV_1222",
    "ProtocolName": "fmap_acq-greAP",
    "PulseSequenceDetails": "%SiemensSeq%_gre_field_mapping",
    "ReceiveCoilActiveElements": "HC1-7;NC1",
    "ReceiveCoilName": "HeadNeck_64",
    "ReconMatrixPE": 88,
    "RepetitionTime": 0.588,
    "SAR": 0.117509,
    "ScanningSequence": "GR",
    "SequenceName": "_fm2d2r",
    "SequenceVariant": "SP",
    "SeriesDescription": "fmap_acq-greAP",
    "SeriesNumber": 22,
    "ShimSetting": [
        1772,
        -9082,
        4374,
        419,
        -100,
        -83,
        116,
        0
    ],
    "SliceThickness": 2.4,
    "SliceTiming": [
        0.29688,
        0,
        0.29688,
        0,
        0.3125,
        0.01562,
        0.3125,
        0.03125,
        0.32812,
        0.03125,
        0.34375,
        0.04688,
        0.34375,
        0.0625,
        0.35938,
        0.0625,
        0.375,
        0.07812,
        0.375,
        0.07812,
        0.39062,
        0.09375,
        0.40625,
        0.10938,
        0.40625,
        0.10938,
        0.42188,
        0.125,
        0.42188,
        0.14062,
        0.4375,
        0.14062,
        0.45312,
        0.15625,
        0.45312,
        0.17188,
        0.46875,
        0.17188,
        0.48438,
        0.1875,
        0.48438,
        0.1875,
        0.5,
        0.20312,
        0.5,
        0.21875,
        0.51562,
        0.21875,
        0.53125,
        0.23438,
        0.53125,
        0.23438,
        0.54688,
        0.25,
        0.5625,
        0.26562,
        0.5625,
        0.26562,
        0.57812,
        0.28125
    ],
    "SoftwareVersions": "syngo_MR_E11",
    "SpacingBetweenSlices": 2.4,
    "StationName": "AWP67050",
    "TxRefAmp": 242.525,
    "dcmmeta_affine": [
        [
            -2.378234624862671,
            -0.1738118976354599,
            0.2510061264038086,
            107.61727142333984
        ],
        [
            -0.2076350748538971,
            2.3659114837646484,
            -0.32962512969970703,
            -76.5335464477539
        ],
        [
            0.22356919944286346,
            0.34835153818130493,
            2.3639678955078125,
            -94.77806854248047
        ],
        [
            0.0,
            0.0,
            0.0,
            1.0
        ]
    ],
    "dcmmeta_reorient_transform": [
        [
            0.0,
            -1.0,
            0.0,
            87.0
        ],
        [
            1.0,
            0.0,
            0.0,
            0.0
        ],
        [
            0.0,
            0.0,
            -1.0,
            59.0
        ],
        [
            0.0,
            0.0,
            0.0,
            1.0
        ]
    ],
    "dcmmeta_shape": [
        88,
        88,
        60
    ],
    "dcmmeta_slice_dim": 2,
    "dcmmeta_version": 0.6,
    "global": {
        "const": {
            "AcquisitionMatrix": [
                88,
                0,
                0,
                88
            ],
            "AcquisitionNumber": 1,
            "AngioFlag": "N",
            "BitsAllocated": 16,
            "BitsStored": 12,
            "BodyPartExamined": "BRAIN",
            "Columns": 88,
            "DeidentificationMethodCodeSequence": [
                {
                    "CodeMeaning": "XNAT DicomEdit 6 Script",
                    "CodeValue": "3",
                    "CodingSchemeDesignator": "XNAT",
                    "CodingSchemeVersion": "1.0"
                }
            ],
            "EchoNumbers": 2,
            "EchoTime": 7.38,
            "EchoTrainLength": 0,
            "FlipAngle": 60.0,
            "HighBit": 11,
            "ImageOrientationPatient": [
                0.99187042027817,
                0.08659661908708,
                0.09324213071298,
                -0.0724902735512,
                0.98673081661225,
                -0.145284052078
            ],
            "ImageType": [
                "ORIGINAL",
                "PRIMARY",
                "P",
                "ND"
            ],
            "ImagedNucleus": "1H",
            "ImagingFrequency": 123.250629,
            "InPlanePhaseEncodingDirection": "COL",
            "MRAcquisitionType": "2D",
            "MagneticFieldStrength": 3.0,
            "Manufacturer": "SIEMENS",
            "ManufacturerModelName": "Prisma_fit",
            "Modality": "MR",
            "NumberOfAverages": 1.0,
            "NumberOfPhaseEncodingSteps": 88,
            "PercentPhaseFieldOfView": 100.0,
            "PercentSampling": 100.0,
            "PerformedProcedureStepStartTime": "141126.402000",
            "PhotometricInterpretation": "MONOCHROME2",
            "PixelBandwidth": 600.0,
            "PixelRepresentation": 0,
            "PixelSpacing": [
                2.3977272510529,
                2.3977272510529
            ],
            "ProtocolName": "fmap_acq-greAP",
            "RepetitionTime": 588.0,
            "RescaleIntercept": -4096.0,
            "RescaleSlope": 2.0,
            "RescaleType": "US",
            "Rows": 88,
            "SAR": 0.11750906844131,
            "SamplesPerPixel": 1,
            "ScanningSequence": "GR",
            "SequenceName": "*fm2d2r",
            "SequenceVariant": "SP",
            "SeriesDescription": "fmap_acq-greAP",
            "SeriesNumber": 22,
            "SeriesTime": "161923.842000",
            "SliceThickness": 2.4000000953674,
            "SoftwareVersions": "syngo MR E11",
            "SpacingBetweenSlices": 2.4,
            "SpecificCharacterSet": "ISO_IR 100",
            "StudyID": "1",
            "StudyTime": "141126.275000",
            "TransmitCoilName": "Body",
            "VariableFlipAngleFlag": "N",
            "WindowCenterWidthExplanation": "Algo1",
            "dBdt": 0.0
        },
        "slices": {
            "AcquisitionTime": [
                "161740.057500",
                "161739.762500",
                "161740.067500",
                "161739.772500",
                "161740.077500",
                "161739.782500",
                "161740.085000",
                "161739.792500",
                "161740.095000",
                "161739.802500",
                "161740.105000",
                "161739.812500",
                "161740.115000",
                "161739.822500",
                "161740.125000",
                "161739.832500",
                "161740.135000",
                "161739.840000",
                "161740.145000",
                "161739.850000",
                "161740.155000",
                "161739.860000",
                "161740.165000",
                "161739.870000",
                "161740.175000",
                "161739.880000",
                "161740.185000",
                "161739.890000",
                "161740.195000",
                "161739.900000",
                "161740.202500",
                "161739.910000",
                "161740.212500",
                "161739.920000",
                "161740.222500",
                "161739.930000",
                "161740.232500",
                "161739.940000",
                "161740.242500",
                "161739.950000",
                "161740.252500",
                "161739.957500",
                "161740.262500",
                "161739.967500",
                "161740.272500",
                "161739.977500",
                "161740.282500",
                "161739.987500",
                "161740.292500",
                "161739.997500",
                "161740.302500",
                "161740.007500",
                "161740.312500",
                "161740.017500",
                "161740.322500",
                "161740.027500",
                "161740.330000",
                "161740.037500",
                "161740.340000",
                "161740.047500"
            ],
            "ContentTime": [
                "161923.977000",
                "161923.844000",
                "161923.978000",
                "161923.913000",
                "161923.980000",
                "161923.915000",
                "161923.982000",
                "161923.917000",
                "161923.984000",
                "161923.919000",
                "161923.986000",
                "161923.921000",
                "161923.988000",
                "161923.923000",
                "161923.990000",
                "161923.924000",
                "161923.992000",
                "161923.926000",
                "161923.994000",
                "161923.928000",
                "161923.995000",
                "161923.930000",
                "161923.997000",
                "161923.932000",
                "161924.000000",
                "161923.934000",
                "161924.002000",
                "161923.936000",
                "161924.004000",
                "161923.937000",
                "161924.006000",
                "161923.939000",
                "161924.008000",
                "161923.941000",
                "161924.010000",
                "161923.943000",
                "161924.012000",
                "161923.945000",
                "161924.014000",
                "161923.947000",
                "161924.015000",
                "161923.948000",
                "161924.017000",
                "161923.950000",
                "161924.019000",
                "161923.952000",
                "161924.021000",
                "161923.954000",
                "161924.023000",
                "161923.956000",
                "161924.025000",
                "161923.958000",
                "161924.027000",
                "161923.960000",
                "161924.029000",
                "161923.971000",
                "161924.030000",
                "161923.973000",
                "161924.032000",
                "161923.975000"
            ],
            "CsaImage.GSWDDataType": [
                "predicted",
                "predicted",
                "predicted",
                "predicted",
                "predicted",
                "predicted",
                "predicted",
                "predicted",
                "predicted",
                "predicted",
                "predicted",
                "predicted",
                "predicted",
                "predicted",
                "predicted",
                "predicted",
                "predicted",
                "predicted",
                "measured",
                "predicted",
                "measured",
                "predicted",
                "measured",
                "predicted",
                "measured",
                "predicted",
                "measured",
                "predicted",
                "measured",
                "predicted",
                "measured",
                "predicted",
                "measured",
                "predicted",
                "measured",
                "predicted",
                "measured",
                "predicted",
                "measured",
                "predicted",
                "measured",
                "predicted",
                "measured",
                "predicted",
                "measured",
                "predicted",
                "measured",
                "predicted",
                "measured",
                "predicted",
                "measured",
                "predicted",
                "measured",
                "predicted",
                "measured",
                "predicted",
                "measured",
                "predicted",
                "measured",
                "predicted"
            ],
            "CsaImage.ICE_Dims": [
                "X_2_1_1_1_1_1_31_1_1_1_1_942",
                "X_2_1_1_1_1_1_1_1_1_2_1_942",
                "X_2_1_1_1_1_1_32_1_1_3_1_942",
                "X_2_1_1_1_1_1_2_1_1_4_1_942",
                "X_2_1_1_1_1_1_33_1_1_5_1_942",
                "X_2_1_1_1_1_1_3_1_1_6_1_942",
                "X_2_1_1_1_1_1_34_1_1_7_1_942",
                "X_2_1_1_1_1_1_4_1_1_8_1_942",
                "X_2_1_1_1_1_1_35_1_1_9_1_942",
                "X_2_1_1_1_1_1_5_1_1_10_1_942",
                "X_2_1_1_1_1_1_36_1_1_11_1_942",
                "X_2_1_1_1_1_1_6_1_1_12_1_942",
                "X_2_1_1_1_1_1_37_1_1_13_1_942",
                "X_2_1_1_1_1_1_7_1_1_14_1_942",
                "X_2_1_1_1_1_1_38_1_1_15_1_942",
                "X_2_1_1_1_1_1_8_1_1_16_1_942",
                "X_2_1_1_1_1_1_39_1_1_17_1_942",
                "X_2_1_1_1_1_1_9_1_1_18_1_942",
                "X_2_1_1_1_1_1_40_1_1_19_1_942",
                "X_2_1_1_1_1_1_10_1_1_20_1_942",
                "X_2_1_1_1_1_1_41_1_1_21_1_942",
                "X_2_1_1_1_1_1_11_1_1_22_1_942",
                "X_2_1_1_1_1_1_42_1_1_23_1_942",
                "X_2_1_1_1_1_1_12_1_1_24_1_942",
                "X_2_1_1_1_1_1_43_1_1_25_1_942",
                "X_2_1_1_1_1_1_13_1_1_26_1_942",
                "X_2_1_1_1_1_1_44_1_1_27_1_942",
                "X_2_1_1_1_1_1_14_1_1_28_1_942",
                "X_2_1_1_1_1_1_45_1_1_29_1_942",
                "X_2_1_1_1_1_1_15_1_1_30_1_942",
                "X_2_1_1_1_1_1_46_1_1_31_1_942",
                "X_2_1_1_1_1_1_16_1_1_32_1_942",
                "X_2_1_1_1_1_1_47_1_1_33_1_942",
                "X_2_1_1_1_1_1_17_1_1_34_1_942",
                "X_2_1_1_1_1_1_48_1_1_35_1_942",
                "X_2_1_1_1_1_1_18_1_1_36_1_942",
                "X_2_1_1_1_1_1_49_1_1_37_1_942",
                "X_2_1_1_1_1_1_19_1_1_38_1_942",
                "X_2_1_1_1_1_1_50_1_1_39_1_942",
                "X_2_1_1_1_1_1_20_1_1_40_1_942",
                "X_2_1_1_1_1_1_51_1_1_41_1_942",
                "X_2_1_1_1_1_1_21_1_1_42_1_942",
                "X_2_1_1_1_1_1_52_1_1_43_1_942",
                "X_2_1_1_1_1_1_22_1_1_44_1_942",
                "X_2_1_1_1_1_1_53_1_1_45_1_942",
                "X_2_1_1_1_1_1_23_1_1_46_1_942",
                "X_2_1_1_1_1_1_54_1_1_47_1_942",
                "X_2_1_1_1_1_1_24_1_1_48_1_942",
                "X_2_1_1_1_1_1_55_1_1_49_1_942",
                "X_2_1_1_1_1_1_25_1_1_50_1_942",
                "X_2_1_1_1_1_1_56_1_1_51_1_942",
                "X_2_1_1_1_1_1_26_1_1_52_1_942",
                "X_2_1_1_1_1_1_57_1_1_53_1_942",
                "X_2_1_1_1_1_1_27_1_1_54_1_942",
                "X_2_1_1_1_1_1_58_1_1_55_1_942",
                "X_2_1_1_1_1_1_28_1_1_56_1_942",
                "X_2_1_1_1_1_1_59_1_1_57_1_942",
                "X_2_1_1_1_1_1_29_1_1_58_1_942",
                "X_2_1_1_1_1_1_60_1_1_59_1_942",
                "X_2_1_1_1_1_1_30_1_1_60_1_942"
            ],
            "CsaImage.ProtocolSliceNumber": [
                0,
                1,
                2,
                3,
                4,
                5,
                6,
                7,
                8,
                9,
                10,
                11,
                12,
                13,
                14,
                15,
                16,
                17,
                18,
                19,
                20,
                21,
                22,
                23,
                24,
                25,
                26,
                27,
                28,
                29,
                30,
                31,
                32,
                33,
                34,
                35,
                36,
                37,
                38,
                39,
                40,
                41,
                42,
                43,
                44,
                45,
                46,
                47,
                48,
                49,
                50,
                51,
                52,
                53,
                54,
                55,
                56,
                57,
                58,
                59
            ],
            "CsaImage.RFSWDDataType": [
                "predicted",
                "predicted",
                "predicted",
                "predicted",
                "predicted",
                "predicted",
                "predicted",
                "predicted",
                "predicted",
                "predicted",
                "predicted",
                "predicted",
                "predicted",
                "predicted",
                "measured",
                "predicted",
                "measured",
                "predicted",
                "measured",
                "predicted",
                "measured",
                "predicted",
                "measured",
                "predicted",
                "measured",
                "predicted",
                "measured",
                "predicted",
                "measured",
                "predicted",
                "measured",
                "predicted",
                "measured",
                "predicted",
                "measured",
                "predicted",
                "measured",
                "predicted",
                "measured",
                "predicted",
                "measured",
                "predicted",
                "measured",
                "predicted",
                "measured",
                "predicted",
                "measured",
                "predicted",
                "measured",
                "predicted",
                "measured",
                "predicted",
                "measured",
                "predicted",
                "measured",
                "predicted",
                "measured",
                "predicted",
                "measured",
                "predicted"
            ],
            "CsaImage.SliceMeasurementDuration": [
                102310.0,
                102312.5,
                102310.0,
                102312.5,
                102310.0,
                102312.5,
                102312.5,
                102312.5,
                102312.5,
                102312.5,
                102312.5,
                102310.0,
                102312.5,
                102310.0,
                102312.5,
                102310.0,
                102312.5,
                102312.5,
                102312.5,
                102312.5,
                102312.5,
                102312.5,
                102312.5,
                102312.5,
                102312.5,
                102312.5,
                102310.0,
                102312.5,
                102310.0,
                102312.5,
                102312.5,
                102312.5,
                102312.5,
                102312.5,
                102312.5,
                102312.5,
                102312.5,
                102310.0,
                102312.5,
                102310.0,
                102312.5,
                102312.5,
                102312.5,
                102312.5,
                102312.5,
                102312.5,
                102312.5,
                102312.5,
                102312.5,
                102312.5,
                102310.0,
                102312.5,
                102310.0,
                102312.5,
                102310.0,
                102312.5,
                102312.5,
                102312.5,
                102312.5,
                102312.5
            ],
            "CsaImage.SlicePosition_PCS": [
                [
                    -92.49562265,
                    -129.30074071,
                    -64.47146852
                ],
                [
                    -92.74662925,
                    -128.97111653,
                    -62.10750062
                ],
                [
                    -92.99763562,
                    -128.6414914,
                    -59.74353273
                ],
                [
                    -93.24864198,
                    -128.31186627,
                    -57.37956483
                ],
                [
                    -93.49964835,
                    -127.98224114,
                    -55.01559694
                ],
                [
                    -93.75065471,
                    -127.65261601,
                    -52.65162904
                ],
                [
                    -94.00166132,
                    -127.32299088,
                    -50.28766496
                ],
                [
                    -94.25266768,
                    -126.99336575,
                    -47.92369707
                ],
                [
                    -94.50367405,
                    -126.66374062,
                    -45.55972917
                ],
                [
                    -94.75468041,
                    -126.33411549,
                    -43.19576128
                ],
                [
                    -95.00568678,
                    -126.00449036,
                    -40.83179338
                ],
                [
                    -95.25669314,
                    -125.67486524,
                    -38.46782548
                ],
                [
                    -95.50769962,
                    -125.34524011,
                    -36.10385759
                ],
                [
                    -95.75870599,
                    -125.01561498,
                    -33.73988969
                ],
                [
                    -96.00971235,
                    -124.68598985,
                    -31.3759218
                ],
                [
                    -96.26071872,
                    -124.35636472,
                    -29.0119539
                ],
                [
                    -96.51172514,
                    -124.02673959,
                    -26.64798601
                ],
                [
                    -96.76273152,
                    -123.69711446,
                    -24.28401811
                ],
                [
                    -97.01373791,
                    -123.36748933,
                    -21.92005212
                ],
                [
                    -97.2647443,
                    -123.0378642,
                    -19.55608423
                ],
                [
                    -97.51575072,
                    -122.70823907,
                    -17.19211633
                ],
                [
                    -97.76675709,
                    -122.37861394,
                    -14.82814844
                ],
                [
                    -98.01776351,
                    -122.04898881,
                    -12.46418054
                ],
                [
                    -98.26876988,
                    -121.71936368,
                    -10.10021265
                ],
                [
                    -98.51977624,
                    -121.38973855,
                    -7.7362457
                ],
                [
                    -98.77078261,
                    -121.06011342,
                    -5.37227781
                ],
                [
                    -99.02178909,
                    -120.73048829,
                    -3.00830991
                ],
                [
                    -99.27279545,
                    -120.40086316,
                    -0.64434249
                ],
                [
                    -99.52380182,
                    -120.07123803,
                    1.71962516
                ],
                [
                    -99.77480818,
                    -119.7416129,
                    4.08359294
                ],
                [
                    -100.02581455,
                    -119.41198777,
                    6.44756054
                ],
                [
                    -100.27682091,
                    -119.08236264,
                    8.81152813
                ],
                [
                    -100.52782728,
                    -118.75273751,
                    11.17549603
                ],
                [
                    -100.77883388,
                    -118.42311238,
                    13.53946345
                ],
                [
                    -101.02984001,
                    -118.09348725,
                    15.90343134
                ],
                [
                    -101.28084661,
                    -117.76386212,
                    18.26739924
                ],
                [
                    -101.53185274,
                    -117.43423699,
                    20.63136618
                ],
                [
                    -101.78285934,
                    -117.10461186,
                    22.99533408
                ],
                [
                    -102.03386594,
                    -116.77498673,
                    25.35930197
                ],
                [
                    -102.28487207,
                    -116.4453616,
                    27.72326987
                ],
                [
                    -102.53587867,
                    -116.11573647,
                    30.08723776
                ],
                [
                    -102.7868848,
                    -115.78611134,
                    32.45120566
                ],
                [
                    -103.0378914,
                    -115.45648621,
                    34.81517165
                ],
                [
                    -103.28889753,
                    -115.12686108,
                    37.17913954
                ],
                [
                    -103.53990413,
                    -114.79723596,
                    39.54310744
                ],
                [
                    -103.79091026,
                    -114.46761083,
                    41.90707533
                ],
                [
                    -104.04191686,
                    -114.13798564,
                    44.27104323
                ],
                [
                    -104.29292347,
                    -113.80836051,
                    46.63501112
                ],
                [
                    -104.54392959,
                    -113.47873541,
                    48.99897902
                ],
                [
                    -104.7949362,
                    -113.14911027,
                    51.36294692
                ],
                [
                    -105.0459428,
                    -112.81948515,
                    53.72691481
                ],
                [
                    -105.29694893,
                    -112.48985999,
                    56.09088271
                ],
                [
                    -105.54795505,
                    -112.16023492,
                    58.4548506
                ],
                [
                    -105.79896118,
                    -111.83060979,
                    60.81881468
                ],
                [
                    -106.04996826,
                    -111.50098466,
                    63.18278258
                ],
                [
                    -106.30097438,
                    -111.17135953,
                    65.54675047
                ],
                [
                    -106.55198051,
                    -110.8417344,
                    67.91071837
                ],
                [
                    -106.80298759,
                    -110.51210927,
                    70.27468627
                ],
                [
                    -107.05399372,
                    -110.18248414,
                    72.63865416
                ],
                [
                    -107.30499984,
