{
    "AcquisitionMatrixPE": 88,
    "AcquisitionNumber": 1,
    "AcquisitionTime": "16:09:19.152500",
    "BaseResolution": 88,
    "BodyPartExamined": "BRAIN",
    "ConsistencyInfo": "N4_VE11C_LATEST_20160120",
    "ConversionSoftware": "dcm2niix",
    "ConversionSoftwareVersion": "v1.0.20190902",
    "DeviceSerialNumber": "67050",
    "DwellTime": 9.5e-06,
    "EchoNumber": 2,
    "EchoTime": 0.00738,
    "EchoTime1": 0.00492,
    "EchoTime2": 0.00738,
    "FlipAngle": 60,
    "ImageOrientationPatientDICOM": [
        0.998671,
        -0.00142176,
        0.051513,
        0.000348566,
        0.999783,
        0.0208365
    ],
    "ImageType": [
        "ORIGINAL",
        "PRIMARY",
        "P",
        "ND"
    ],
    "ImagingFrequency": 123.251,
    "InPlanePhaseEncodingDirectionDICOM": "COL",
    "InstitutionAddress": "Olive_Street_60_Providence_RI_US_02912",
    "InstitutionName": "BROWN_UNIVERSITY_MRF",
    "InstitutionalDepartmentName": "Department",
    "IntendedFor": [
        "ses-01/func/sub-8026_ses-01_task-RDMcolor_run-03_bold.nii.gz",
        "ses-01/func/sub-8026_ses-01_task-RDMcolor_run-05_bold.nii.gz",
        "ses-01/func/sub-8026_ses-01_task-RDMmotion_run-03_bold.nii.gz",
        "ses-01/func/sub-8026_ses-01_task-RDMmotion_run-06_bold.nii.gz",
        "ses-01/func/sub-8026_ses-01_task-RDMlocalizer_run-02_bold.nii.gz",
        "ses-01/func/sub-8026_ses-01_task-RDMmotion_run-04_bold.nii.gz",
        "ses-01/func/sub-8026_ses-01_task-RDMcolor_run-02_bold.nii.gz",
        "ses-01/func/sub-8026_ses-01_task-RDMcolor_run-06_bold.nii.gz",
        "ses-01/func/sub-8026_ses-01_task-RDMmotion_run-01_bold.nii.gz",
        "ses-01/func/sub-8026_ses-01_task-RDMmotion_run-02_bold.nii.gz",
        "ses-01/func/sub-8026_ses-01_task-RDMmotion_run-05_bold.nii.gz",
        "ses-01/func/sub-8026_ses-01_task-RDMcolor_run-04_bold.nii.gz",
        "ses-01/func/sub-8026_ses-01_task-RDMlocalizer_run-01_bold.nii.gz",
        "ses-01/func/sub-8026_ses-01_task-RDMcolor_run-01_bold.nii.gz"
    ],
    "MRAcquisitionType": "2D",
    "MagneticFieldStrength": 3,
    "Manufacturer": "Siemens",
    "ManufacturersModelName": "Prisma_fit",
    "Modality": "MR",
    "MultibandAccelerationFactor": 2,
    "PartialFourier": 1,
    "PatientPosition": "HFS",
    "PercentPhaseFOV": 100,
    "PhaseEncodingDirection": "j-",
    "PhaseEncodingSteps": 88,
    "PhaseResolution": 1,
    "PixelBandwidth": 600,
    "ProcedureStepDescription": "ASHENHAV_1222",
    "ProtocolName": "fmap_acq-greAP",
    "PulseSequenceDetails": "%SiemensSeq%_gre_field_mapping",
    "ReceiveCoilActiveElements": "HC1-7",
    "ReceiveCoilName": "HeadNeck_64",
    "ReconMatrixPE": 88,
    "RepetitionTime": 0.588,
    "SAR": 0.139378,
    "ScanningSequence": "GR",
    "SequenceName": "_fm2d2r",
    "SequenceVariant": "SP",
    "SeriesDescription": "fmap_acq-greAP",
    "SeriesNumber": 22,
    "ShimSetting": [
        1749,
        -9088,
        4398,
        530,
        -107,
        -81,
        4,
        1
    ],
    "SliceThickness": 2.4,
    "SliceTiming": [
        0.29688,
        0,
        0.29688,
        0.01562,
        0.3125,
        0.01562,
        0.32812,
        0.03125,
        0.32812,
        0.03125,
        0.34375,
        0.04688,
        0.34375,
        0.0625,
        0.35938,
        0.0625,
        0.375,
        0.07812,
        0.375,
        0.09375,
        0.39062,
        0.09375,
        0.40625,
        0.10938,
        0.40625,
        0.10938,
        0.42188,
        0.125,
        0.4375,
        0.14062,
        0.4375,
        0.14062,
        0.45312,
        0.15625,
        0.45312,
        0.17188,
        0.46875,
        0.17188,
        0.48438,
        0.1875,
        0.48438,
        0.20312,
        0.5,
        0.20312,
        0.51562,
        0.21875,
        0.51562,
        0.21875,
        0.53125,
        0.23438,
        0.53125,
        0.25,
        0.54688,
        0.25,
        0.5625,
        0.26562,
        0.5625,
        0.26562,
        0.57812,
        0.28125
    ],
    "SoftwareVersions": "syngo_MR_E11",
    "SpacingBetweenSlices": 2.4,
    "StationName": "AWP67050",
    "TxRefAmp": 219.808,
    "dcmmeta_affine": [
        [
            -2.3945415019989014,
            0.0008357656770385802,
            0.12367534637451172,
            102.69482421875
        ],
        [
            0.0034089938271790743,
            2.3972065448760986,
            0.04989814758300781,
            -99.1469497680664
        ],
        [
            0.12351413071155548,
            -0.049960169941186905,
            2.3962936401367188,
            -71.01966094970703
        ],
        [
            0.0,
            0.0,
            0.0,
            1.0
        ]
    ],
    "dcmmeta_reorient_transform": [
        [
            0.0,
            -1.0,
            0.0,
            87.0
        ],
        [
            1.0,
            0.0,
            0.0,
            0.0
        ],
        [
            0.0,
            0.0,
            -1.0,
            59.0
        ],
        [
            0.0,
            0.0,
            0.0,
            1.0
        ]
    ],
    "dcmmeta_shape": [
        88,
        88,
        60
    ],
    "dcmmeta_slice_dim": 2,
    "dcmmeta_version": 0.6,
    "global": {
        "const": {
            "AcquisitionMatrix": [
                88,
                0,
                0,
                88
            ],
            "AcquisitionNumber": 1,
            "AngioFlag": "N",
            "BitsAllocated": 16,
            "BitsStored": 12,
            "BodyPartExamined": "BRAIN",
            "Columns": 88,
            "DeidentificationMethodCodeSequence": [
                {
                    "CodeMeaning": "XNAT DicomEdit 6 Script",
                    "CodeValue": "3",
                    "CodingSchemeDesignator": "XNAT",
                    "CodingSchemeVersion": "1.0"
                }
            ],
            "EchoNumbers": 2,
            "EchoTime": 7.38,
            "EchoTrainLength": 0,
            "FlipAngle": 60.0,
            "HighBit": 11,
            "ImageOrientationPatient": [
                0.99867131193568,
                -0.0014217604467,
                0.05151300140653,
                0.00034856577815,
                0.99978283645386,
                0.02083646885068
            ],
            "ImageType": [
                "ORIGINAL",
                "PRIMARY",
                "P",
                "ND"
            ],
            "ImagedNucleus": "1H",
            "ImagingFrequency": 123.250778,
            "InPlanePhaseEncodingDirection": "COL",
            "MRAcquisitionType": "2D",
            "MagneticFieldStrength": 3.0,
            "Manufacturer": "SIEMENS",
            "ManufacturerModelName": "Prisma_fit",
            "Modality": "MR",
            "NumberOfAverages": 1.0,
            "NumberOfPhaseEncodingSteps": 88,
            "PercentPhaseFieldOfView": 100.0,
            "PercentSampling": 100.0,
            "PerformedProcedureStepStartTime": "143433.499000",
            "PhotometricInterpretation": "MONOCHROME2",
            "PixelBandwidth": 600.0,
            "PixelRepresentation": 0,
            "PixelSpacing": [
                2.3977272510529,
                2.3977272510529
            ],
            "ProtocolName": "fmap_acq-greAP",
            "RepetitionTime": 588.0,
            "RescaleIntercept": -4096.0,
            "RescaleSlope": 2.0,
            "RescaleType": "US",
            "Rows": 88,
            "SAR": 0.13937812095322,
            "SamplesPerPixel": 1,
            "ScanningSequence": "GR",
            "SequenceName": "*fm2d2r",
            "SequenceVariant": "SP",
            "SeriesDescription": "fmap_acq-greAP",
            "SeriesNumber": 22,
            "SeriesTime": "161103.504000",
            "SliceThickness": 2.4000000953674,
            "SoftwareVersions": "syngo MR E11",
            "SpacingBetweenSlices": 2.4,
            "SpecificCharacterSet": "ISO_IR 100",
            "StudyID": "1",
            "StudyTime": "143433.413000",
            "TransmitCoilName": "Body",
            "VariableFlipAngleFlag": "N",
            "WindowCenterWidthExplanation": "Algo1",
            "dBdt": 0.0
        },
        "slices": {
            "AcquisitionTime": [
                "160919.152500",
                "160918.857500",
                "160919.162500",
                "160918.867500",
                "160919.172500",
                "160918.877500",
                "160919.182500",
                "160918.887500",
                "160919.192500",
                "160918.897500",
                "160919.202500",
                "160918.907500",
                "160919.210000",
                "160918.917500",
                "160919.220000",
                "160918.927500",
                "160919.230000",
                "160918.937500",
                "160919.240000",
                "160918.947500",
                "160919.250000",
                "160918.957500",
                "160919.260000",
                "160918.965000",
                "160919.270000",
                "160918.975000",
                "160919.280000",
                "160918.985000",
                "160919.290000",
                "160918.995000",
                "160919.300000",
                "160919.005000",
                "160919.310000",
                "160919.015000",
                "160919.320000",
                "160919.025000",
                "160919.327500",
                "160919.035000",
                "160919.337500",
                "160919.045000",
                "160919.347500",
                "160919.055000",
                "160919.357500",
                "160919.065000",
                "160919.367500",
                "160919.075000",
                "160919.377500",
                "160919.082500",
                "160919.387500",
                "160919.092500",
                "160919.397500",
                "160919.102500",
                "160919.407500",
                "160919.112500",
                "160919.417500",
                "160919.122500",
                "160919.427500",
                "160919.132500",
                "160919.437500",
                "160919.142500"
            ],
            "ContentTime": [
                "161103.575000",
                "161103.505000",
                "161103.577000",
                "161103.508000",
                "161103.579000",
                "161103.509000",
                "161103.581000",
                "161103.521000",
                "161103.582000",
                "161103.522000",
                "161103.584000",
                "161103.524000",
                "161103.586000",
                "161103.526000",
                "161103.588000",
                "161103.528000",
                "161103.590000",
                "161103.530000",
                "161103.592000",
                "161103.532000",
                "161103.594000",
                "161103.534000",
                "161103.595000",
                "161103.536000",
                "161103.597000",
                "161103.541000",
                "161103.599000",
                "161103.543000",
                "161103.601000",
                "161103.545000",
                "161103.603000",
                "161103.547000",
                "161103.605000",
                "161103.548000",
                "161103.607000",
                "161103.550000",
                "161103.609000",
                "161103.552000",
                "161103.611000",
                "161103.554000",
                "161103.612000",
                "161103.556000",
                "161103.614000",
                "161103.558000",
                "161103.616000",
                "161103.560000",
                "161103.618000",
                "161103.562000",
                "161103.620000",
                "161103.564000",
                "161103.622000",
                "161103.566000",
                "161103.624000",
                "161103.567000",
                "161103.626000",
                "161103.569000",
                "161103.628000",
                "161103.571000",
                "161103.630000",
                "161103.573000"
            ],
            "CsaImage.GSWDDataType": [
                "predicted",
                "predicted",
                "predicted",
                "predicted",
                "predicted",
                "predicted",
                "predicted",
                "predicted",
                "predicted",
                "predicted",
                "measured",
                "predicted",
                "measured",
                "predicted",
                "measured",
                "predicted",
                "measured",
                "predicted",
                "measured",
                "predicted",
                "measured",
                "predicted",
                "measured",
                "predicted",
                "measured",
                "predicted",
                "measured",
                "predicted",
                "measured",
                "predicted",
                "measured",
                "predicted",
                "measured",
                "predicted",
                "measured",
                "predicted",
                "measured",
                "predicted",
                "measured",
                "predicted",
                "measured",
                "predicted",
                "measured",
                "predicted",
                "measured",
                "predicted",
                "measured",
                "predicted",
                "measured",
                "predicted",
                "measured",
                "predicted",
                "measured",
                "predicted",
                "measured",
                "predicted",
                "measured",
                "predicted",
                "measured",
                "predicted"
            ],
            "CsaImage.ICE_Dims": [
                "X_2_1_1_1_1_1_31_1_1_1_1_1986",
                "X_2_1_1_1_1_1_1_1_1_2_1_1986",
                "X_2_1_1_1_1_1_32_1_1_3_1_1986",
                "X_2_1_1_1_1_1_2_1_1_4_1_1986",
                "X_2_1_1_1_1_1_33_1_1_5_1_1986",
                "X_2_1_1_1_1_1_3_1_1_6_1_1986",
                "X_2_1_1_1_1_1_34_1_1_7_1_1986",
                "X_2_1_1_1_1_1_4_1_1_8_1_1986",
                "X_2_1_1_1_1_1_35_1_1_9_1_1986",
                "X_2_1_1_1_1_1_5_1_1_10_1_1986",
                "X_2_1_1_1_1_1_36_1_1_11_1_1986",
                "X_2_1_1_1_1_1_6_1_1_12_1_1986",
                "X_2_1_1_1_1_1_37_1_1_13_1_1986",
                "X_2_1_1_1_1_1_7_1_1_14_1_1986",
                "X_2_1_1_1_1_1_38_1_1_15_1_1986",
                "X_2_1_1_1_1_1_8_1_1_16_1_1986",
                "X_2_1_1_1_1_1_39_1_1_17_1_1986",
                "X_2_1_1_1_1_1_9_1_1_18_1_1986",
                "X_2_1_1_1_1_1_40_1_1_19_1_1986",
                "X_2_1_1_1_1_1_10_1_1_20_1_1986",
                "X_2_1_1_1_1_1_41_1_1_21_1_1986",
                "X_2_1_1_1_1_1_11_1_1_22_1_1986",
                "X_2_1_1_1_1_1_42_1_1_23_1_1986",
                "X_2_1_1_1_1_1_12_1_1_24_1_1986",
                "X_2_1_1_1_1_1_43_1_1_25_1_1986",
                "X_2_1_1_1_1_1_13_1_1_26_1_1986",
                "X_2_1_1_1_1_1_44_1_1_27_1_1986",
                "X_2_1_1_1_1_1_14_1_1_28_1_1986",
                "X_2_1_1_1_1_1_45_1_1_29_1_1986",
                "X_2_1_1_1_1_1_15_1_1_30_1_1986",
                "X_2_1_1_1_1_1_46_1_1_31_1_1986",
                "X_2_1_1_1_1_1_16_1_1_32_1_1986",
                "X_2_1_1_1_1_1_47_1_1_33_1_1986",
                "X_2_1_1_1_1_1_17_1_1_34_1_1986",
                "X_2_1_1_1_1_1_48_1_1_35_1_1986",
                "X_2_1_1_1_1_1_18_1_1_36_1_1986",
                "X_2_1_1_1_1_1_49_1_1_37_1_1986",
                "X_2_1_1_1_1_1_19_1_1_38_1_1986",
                "X_2_1_1_1_1_1_50_1_1_39_1_1986",
                "X_2_1_1_1_1_1_20_1_1_40_1_1986",
                "X_2_1_1_1_1_1_51_1_1_41_1_1986",
                "X_2_1_1_1_1_1_21_1_1_42_1_1986",
                "X_2_1_1_1_1_1_52_1_1_43_1_1986",
                "X_2_1_1_1_1_1_22_1_1_44_1_1986",
                "X_2_1_1_1_1_1_53_1_1_45_1_1986",
                "X_2_1_1_1_1_1_23_1_1_46_1_1986",
                "X_2_1_1_1_1_1_54_1_1_47_1_1986",
                "X_2_1_1_1_1_1_24_1_1_48_1_1986",
                "X_2_1_1_1_1_1_55_1_1_49_1_1986",
                "X_2_1_1_1_1_1_25_1_1_50_1_1986",
                "X_2_1_1_1_1_1_56_1_1_51_1_1986",
                "X_2_1_1_1_1_1_26_1_1_52_1_1986",
                "X_2_1_1_1_1_1_57_1_1_53_1_1986",
                "X_2_1_1_1_1_1_27_1_1_54_1_1986",
                "X_2_1_1_1_1_1_58_1_1_55_1_1986",
                "X_2_1_1_1_1_1_28_1_1_56_1_1986",
                "X_2_1_1_1_1_1_59_1_1_57_1_1986",
                "X_2_1_1_1_1_1_29_1_1_58_1_1986",
                "X_2_1_1_1_1_1_60_1_1_59_1_1986",
                "X_2_1_1_1_1_1_30_1_1_60_1_1986"
            ],
            "CsaImage.ProtocolSliceNumber": [
                0,
                1,
                2,
                3,
                4,
                5,
                6,
                7,
                8,
                9,
                10,
                11,
                12,
                13,
                14,
                15,
                16,
                17,
                18,
                19,
                20,
                21,
                22,
                23,
                24,
                25,
                26,
                27,
                28,
                29,
                30,
                31,
                32,
                33,
                34,
                35,
                36,
                37,
                38,
                39,
                40,
                41,
                42,
                43,
                44,
                45,
                46,
                47,
                48,
                49,
                50,
                51,
                52,
                53,
                54,
                55,
                56,
                57,
                58,
                59
            ],
            "CsaImage.RFSWDDataType": [
                "predicted",
                "predicted",
                "predicted",
                "predicted",
                "predicted",
                "predicted",
                "measured",
                "predicted",
                "measured",
                "predicted",
                "measured",
                "predicted",
                "measured",
                "predicted",
                "measured",
                "predicted",
                "measured",
                "predicted",
                "measured",
                "predicted",
                "measured",
                "predicted",
                "measured",
                "predicted",
                "measured",
                "predicted",
                "measured",
                "predicted",
                "measured",
                "predicted",
                "measured",
                "predicted",
                "measured",
                "predicted",
                "measured",
                "predicted",
                "measured",
                "predicted",
                "measured",
                "predicted",
                "measured",
                "predicted",
                "measured",
                "predicted",
                "measured",
                "predicted",
                "measured",
                "predicted",
                "measured",
                "predicted",
                "measured",
                "predicted",
                "measured",
                "predicted",
                "measured",
                "predicted",
                "measured",
                "predicted",
                "measured",
                "predicted"
            ],
            "CsaImage.SliceMeasurementDuration": [
                102312.5,
                102312.5,
                102312.5,
                102312.5,
                102312.5,
                102312.5,
                102310.0,
                102312.5,
                102310.0,
                102312.5,
                102310.0,
                102312.5,
                102312.5,
                102312.5,
                102312.5,
                102312.5,
                102312.5,
                102310.0,
                102312.5,
                102310.0,
                102312.5,
                102310.0,
                102312.5,
                102312.5,
                102312.5,
                102312.5,
                102312.5,
                102312.5,
                102312.5,
                102312.5,
                102312.5,
                102312.5,
                102310.0,
                102312.5,
                102310.0,
                102312.5,
                102312.5,
                102312.5,
                102312.5,
                102312.5,
                102312.5,
                102312.5,
                102312.5,
                102310.0,
                102312.5,
                102310.0,
                102312.5,
                102312.5,
                102312.5,
                102312.5,
                102312.5,
                102312.5,
                102312.5,
                102312.5,
                102312.5,
                102312.5,
                102310.0,
                102312.5,
                102310.0,
                102312.5
            ],
            "CsaImage.SlicePosition_PCS": [
                [
                    -102.76752801,
                    -109.41002599,
                    -75.366092
                ],
                [
                    -102.89120336,
                    -109.45992414,
                    -72.96979836
                ],
                [
                    -103.01487894,
                    -109.50982229,
                    -70.57350854
                ],
                [
                    -103.13855429,
                    -109.55971996,
                    -68.1772149
                ],
                [
                    -103.26222987,
                    -109.60961811,
                    -65.78092507
                ],
                [
                    -103.38590522,
                    -109.65951625,
                    -63.38463143
                ],
                [
                    -103.50958068,
                    -109.70941392,
                    -60.98834161
                ],
                [
                    -103.63325615,
                    -109.75931207,
                    -58.59204797
                ],
                [
                    -103.75693162,
                    -109.80921022,
                    -56.19575814
                ],
                [
                    -103.88060708,
                    -109.85910789,
                    -53.7994645
                ],
                [
                    -104.00428243,
                    -109.90900604,
                    -51.40317468
                ],
                [
                    -104.12795789,
                    -109.95890419,
                    -49.00688104
                ],
                [
                    -104.25163336,
                    -110.00880186,
                    -46.61059121
                ],
                [
                    -104.37530882,
                    -110.0587,
                    -44.21429757
                ],
                [
                    -104.49898429,
                    -110.10859815,
                    -41.81800775
                ],
                [
                    -104.62265976,
                    -110.15849582,
                    -39.42171411
                ],
                [
                    -104.74633516,
                    -110.20839397,
                    -37.02542237
                ],
                [
                    -104.87001063,
                    -110.25829212,
                    -34.62913064
                ],
                [
                    -104.99368606,
                    -110.30818979,
                    -32.23283891
                ],
                [
                    -105.11736153,
                    -110.35808794,
                    -29.83654717
                ],
                [
                    -105.24103698,
                    -110.40798608,
                    -27.44025544
                ],
                [
                    -105.36471243,
                    -110.45788375,
                    -25.04396371
                ],
                [
                    -105.48838787,
                    -110.5077819,
                    -22.64767102
                ],
                [
                    -105.61206333,
                    -110.55768005,
                    -20.25137929
                ],
                [
                    -105.73573877,
                    -110.60757772,
                    -17.85508756
                ],
                [
                    -105.85941423,
                    -110.65747587,
                    -15.45879582
                ],
                [
                    -105.9830897,
                    -110.70737354,
                    -13.06250361
                ],
                [
                    -106.1067651,
                    -110.75727169,
                    -10.66621188
                ],
                [
                    -106.23044057,
                    -110.80716983,
                    -8.26992015
                ],
                [
                    -106.35411603,
                    -110.8570675,
                    -5.8736283
                ],
                [
                    -106.4777915,
                    -110.90696565,
                    -3.47733668
                ],
                [
                    -106.60146697,
                    -110.9568638,
                    -1.08104447
                ],
                [
                    -106.72514231,
                    -111.00676147,
                    1.31524726
                ],
                [
                    -106.84881778,
                    -111.05665962,
                    3.71153899
                ],
                [
                    -106.97249324,
                    -111.10655777,
                    6.10783072
                ],
                [
                    -107.09616871,
                    -111.15645544,
                    8.50412246
                ],
                [
                    -107.21984417,
                    -111.20635358,
                    10.90041419
                ],
                [
                    -107.34351964,
                    -111.25625173,
                    13.29670592
                ],
                [
                    -107.46719499,
                    -111.3061494,
                    15.69299766
                ],
                [
                    -107.59087057,
                    -111.35604755,
                    18.08928939
                ],
                [
                    -107.71454592,
                    -111.4059457,
                    20.48558112
                ],
                [
                    -107.8382215,
                    -111.45584337,
                    22.88187285
                ],
                [
                    -107.96189685,
                    -111.50574152,
                    25.27816459
                ],
                [
                    -108.08557243,
                    -111.55563966,
                    27.67445823
                ],
                [
                    -108.20924778,
                    -111.60553733,
                    30.07074805
                ],
                [
                    -108.33292313,
                    -111.65543548,
                    32.46704169
                ],
                [
                    -108.45659871,
                    -111.70533363,
                    34.86333152
                ],
                [
                    -108.58027406,
                    -111.7552313,
                    37.25962516
                ],
                [
                    -108.70394964,
                    -111.80512945,
                    39.65591498
                ],
                [
                    -108.82762499,
                    -111.85502759,
                    42.05220862
                ],
                [
                    -108.95130057,
                    -111.90492527,
                    44.44849845
                ],
                [
                    -109.07497592,
                    -111.95482341,
                    46.84479209
                ],
                [
                    -109.19865127,
                    -112.00472156,
                    49.24108573
                ],
                [
                    -109.32232685,
                    -112.05461923,
                    51.63737556
                ],
                [
                    -109.4460022,
                    -112.10451738,
                    54.0336692
                ],
                [
                    -109.56967754,
                    -112.15441553,
                    56.42995902
                ],
                [
                    -109.69335337,
                    -112.2043132,
                    58.82625266
                ],
                [
                    -109.81702871,
                    -112.25421134,
                    61.2225463
                ],
                [
                    -109.94070406,
                    -112.30410902,
                    63.61883231
