{
    "AcquisitionMatrixPE": 88,
    "AcquisitionNumber": 1,
    "AcquisitionTime": "19:13:0.102500",
    "BaseResolution": 88,
    "BodyPartExamined": "BRAIN",
    "ConsistencyInfo": "N4_VE11C_LATEST_20160120",
    "ConversionSoftware": "dcm2niix",
    "ConversionSoftwareVersion": "v1.0.20190902",
    "DeviceSerialNumber": "67050",
    "DwellTime": 9.5e-06,
    "EchoNumber": 2,
    "EchoTime": 0.00738,
    "EchoTime1": 0.00492,
    "EchoTime2": 0.00738,
    "FlipAngle": 60,
    "ImageOrientationPatientDICOM": [
        0.99659,
        0.0136758,
        0.0813708,
        -0.0146118,
        0.999834,
        0.0109195
    ],
    "ImageType": [
        "ORIGINAL",
        "PRIMARY",
        "P",
        "ND"
    ],
    "ImagingFrequency": 123.251,
    "InPlanePhaseEncodingDirectionDICOM": "COL",
    "InstitutionAddress": "Olive_Street_60_Providence_RI_US_02912",
    "InstitutionName": "BROWN_UNIVERSITY_MRF",
    "InstitutionalDepartmentName": "Department",
    "IntendedFor": [
        "ses-01/func/sub-8010_ses-01_task-RDMmotion_run-04_bold.nii.gz",
        "ses-01/func/sub-8010_ses-01_task-RDMmotion_run-05_bold.nii.gz",
        "ses-01/func/sub-8010_ses-01_task-RDMmotion_run-03_bold.nii.gz",
        "ses-01/func/sub-8010_ses-01_task-RDMcolor_run-02_bold.nii.gz",
        "ses-01/func/sub-8010_ses-01_task-RDMmotion_run-01_bold.nii.gz",
        "ses-01/func/sub-8010_ses-01_task-RDMcolor_run-05_bold.nii.gz",
        "ses-01/func/sub-8010_ses-01_task-RDMlocalizer_run-01_bold.nii.gz",
        "ses-01/func/sub-8010_ses-01_task-RDMmotion_run-02_bold.nii.gz",
        "ses-01/func/sub-8010_ses-01_task-RDMcolor_run-01_bold.nii.gz",
        "ses-01/func/sub-8010_ses-01_task-RDMcolor_run-04_bold.nii.gz",
        "ses-01/func/sub-8010_ses-01_task-RDMcolor_run-03_bold.nii.gz",
        "ses-01/func/sub-8010_ses-01_task-RDMlocalizer_run-02_bold.nii.gz",
        "ses-01/func/sub-8010_ses-01_task-RDMmotion_run-06_bold.nii.gz"
    ],
    "MRAcquisitionType": "2D",
    "MagneticFieldStrength": 3,
    "Manufacturer": "Siemens",
    "ManufacturersModelName": "Prisma_fit",
    "Modality": "MR",
    "MultibandAccelerationFactor": 2,
    "PartialFourier": 1,
    "PatientPosition": "HFS",
    "PercentPhaseFOV": 100,
    "PhaseEncodingDirection": "j-",
    "PhaseEncodingSteps": 88,
    "PhaseResolution": 1,
    "PixelBandwidth": 600,
    "ProcedureStepDescription": "ASHENHAV_1222",
    "ProtocolName": "fmap_acq-greAP",
    "PulseSequenceDetails": "%SiemensSeq%_gre_field_mapping",
    "ReceiveCoilActiveElements": "HC1-7",
    "ReceiveCoilName": "HeadNeck_64",
    "ReconMatrixPE": 88,
    "RepetitionTime": 0.588,
    "SAR": 0.11697,
    "ScanningSequence": "GR",
    "SequenceName": "_fm2d2r",
    "SequenceVariant": "SP",
    "SeriesDescription": "fmap_acq-greAP",
    "SeriesNumber": 26,
    "ShimSetting": [
        1774,
        -9240,
        4498,
        838,
        -31,
        -212,
        397,
        -16
    ],
    "SliceThickness": 2.4,
    "SliceTiming": [
        0.29688,
        0,
        0.29688,
        0,
        0.3125,
        0.01562,
        0.3125,
        0.03125,
        0.32812,
        0.03125,
        0.34375,
        0.04688,
        0.34375,
        0.0625,
        0.35938,
        0.0625,
        0.375,
        0.07812,
        0.375,
        0.07812,
        0.39062,
        0.09375,
        0.39062,
        0.10938,
        0.40625,
        0.10938,
        0.42188,
        0.125,
        0.42188,
        0.125,
        0.4375,
        0.14062,
        0.45312,
        0.15625,
        0.45312,
        0.15625,
        0.46875,
        0.17188,
        0.46875,
        0.1875,
        0.48438,
        0.1875,
        0.5,
        0.20312,
        0.5,
        0.20312,
        0.51562,
        0.21875,
        0.53125,
        0.23438,
        0.53125,
        0.23438,
        0.54688,
        0.25,
        0.5625,
        0.26562,
        0.5625,
        0.26562,
        0.57812,
        0.28125
    ],
    "SoftwareVersions": "syngo_MR_E11",
    "SpacingBetweenSlices": 2.4,
    "StationName": "AWP67050",
    "TxRefAmp": 226.3,
    "dcmmeta_affine": [
        [
            -2.3895511627197266,
            -0.03503521904349327,
            0.1948986053466797,
            103.96607208251953
        ],
        [
            -0.032790765166282654,
            2.3973283767700195,
            0.02897089719772339,
            -103.7857437133789
        ],
        [
            0.19510498642921448,
            -0.02618190459907055,
            2.3918991088867188,
            -58.11600112915039
        ],
        [
            0.0,
            0.0,
            0.0,
            1.0
        ]
    ],
    "dcmmeta_reorient_transform": [
        [
            0.0,
            -1.0,
            0.0,
            87.0
        ],
        [
            1.0,
            0.0,
            0.0,
            0.0
        ],
        [
            0.0,
            0.0,
            -1.0,
            59.0
        ],
        [
            0.0,
            0.0,
            0.0,
            1.0
        ]
    ],
    "dcmmeta_shape": [
        88,
        88,
        60
    ],
    "dcmmeta_slice_dim": 2,
    "dcmmeta_version": 0.6,
    "global": {
        "const": {
            "AcquisitionMatrix": [
                88,
                0,
                0,
                88
            ],
            "AcquisitionNumber": 1,
            "AngioFlag": "N",
            "BitsAllocated": 16,
            "BitsStored": 12,
            "BodyPartExamined": "BRAIN",
            "Columns": 88,
            "DeidentificationMethodCodeSequence": [
                {
                    "CodeMeaning": "XNAT DicomEdit 6 Script",
                    "CodeValue": "3",
                    "CodingSchemeDesignator": "XNAT",
                    "CodingSchemeVersion": "1.0"
                }
            ],
            "EchoNumbers": 2,
            "EchoTime": 7.38,
            "EchoTrainLength": 0,
            "FlipAngle": 60.0,
            "HighBit": 11,
            "ImageOrientationPatient": [
                0.99659006939092,
                0.01367576980886,
                0.08137079888713,
                -0.0146118455434,
                0.99983361575863,
                0.01091946742455
            ],
            "ImageType": [
                "ORIGINAL",
                "PRIMARY",
                "P",
                "ND"
            ],
            "ImagedNucleus": "1H",
            "ImagingFrequency": 123.25076,
            "InPlanePhaseEncodingDirection": "COL",
            "MRAcquisitionType": "2D",
            "MagneticFieldStrength": 3.0,
            "Manufacturer": "SIEMENS",
            "ManufacturerModelName": "Prisma_fit",
            "Modality": "MR",
            "NumberOfAverages": 1.0,
            "NumberOfPhaseEncodingSteps": 88,
            "PercentPhaseFieldOfView": 100.0,
            "PercentSampling": 100.0,
            "PerformedProcedureStepStartTime": "172520.650000",
            "PhotometricInterpretation": "MONOCHROME2",
            "PixelBandwidth": 600.0,
            "PixelRepresentation": 0,
            "PixelSpacing": [
                2.3977272510529,
                2.3977272510529
            ],
            "ProtocolName": "fmap_acq-greAP",
            "RepetitionTime": 588.0,
            "RescaleIntercept": -4096.0,
            "RescaleSlope": 2.0,
            "RescaleType": "US",
            "Rows": 88,
            "SAR": 0.11696972099146,
            "SamplesPerPixel": 1,
            "ScanningSequence": "GR",
            "SequenceName": "*fm2d2r",
            "SequenceVariant": "SP",
            "SeriesDescription": "fmap_acq-greAP",
            "SeriesNumber": 26,
            "SeriesTime": "191444.028000",
            "SliceThickness": 2.4000000953674,
            "SoftwareVersions": "syngo MR E11",
            "SpacingBetweenSlices": 2.4,
            "SpecificCharacterSet": "ISO_IR 100",
            "StudyID": "1",
            "StudyTime": "172520.512000",
            "TransmitCoilName": "Body",
            "VariableFlipAngleFlag": "N",
            "WindowCenterWidthExplanation": "Algo1",
            "dBdt": 0.0
        },
        "slices": {
            "AcquisitionTime": [
                "191300.102500",
                "191259.807500",
                "191300.112500",
                "191259.817500",
                "191300.122500",
                "191259.827500",
                "191300.132500",
                "191259.837500",
                "191300.142500",
                "191259.847500",
                "191300.150000",
                "191259.857500",
                "191300.160000",
                "191259.867500",
                "191300.170000",
                "191259.877500",
                "191300.180000",
                "191259.887500",
                "191300.190000",
                "191259.897500",
                "191300.200000",
                "191259.905000",
                "191300.210000",
                "191259.915000",
                "191300.220000",
                "191259.925000",
                "191300.230000",
                "191259.935000",
                "191300.240000",
                "191259.945000",
                "191300.250000",
                "191259.955000",
                "191300.260000",
                "191259.965000",
                "191300.267500",
                "191259.975000",
                "191300.277500",
                "191259.985000",
                "191300.287500",
                "191259.995000",
                "191300.297500",
                "191300.005000",
                "191300.307500",
                "191300.015000",
                "191300.317500",
                "191300.022500",
                "191300.327500",
                "191300.032500",
                "191300.337500",
                "191300.042500",
                "191300.347500",
                "191300.052500",
                "191300.357500",
                "191300.062500",
                "191300.367500",
                "191300.072500",
                "191300.377500",
                "191300.082500",
                "191300.387500",
                "191300.092500"
            ],
            "ContentTime": [
                "191444.086000",
                "191444.030000",
                "191444.087000",
                "191444.032000",
                "191444.089000",
                "191444.034000",
                "191444.091000",
                "191444.035000",
                "191444.093000",
                "191444.037000",
                "191444.095000",
                "191444.039000",
                "191444.097000",
                "191444.041000",
                "191444.098000",
                "191444.043000",
                "191444.100000",
                "191444.045000",
                "191444.102000",
                "191444.046000",
                "191444.104000",
                "191444.048000",
                "191444.106000",
                "191444.050000",
                "191444.108000",
                "191444.052000",
                "191444.109000",
                "191444.054000",
                "191444.111000",
                "191444.056000",
                "191444.113000",
                "191444.057000",
                "191444.115000",
                "191444.059000",
                "191444.117000",
                "191444.061000",
                "191444.119000",
                "191444.063000",
                "191444.121000",
                "191444.065000",
                "191444.123000",
                "191444.067000",
                "191444.125000",
                "191444.069000",
                "191444.126000",
                "191444.071000",
                "191444.129000",
                "191444.073000",
                "191444.131000",
                "191444.074000",
                "191444.133000",
                "191444.076000",
                "191444.134000",
                "191444.078000",
                "191444.136000",
                "191444.080000",
                "191444.138000",
                "191444.082000",
                "191444.140000",
                "191444.084000"
            ],
            "CsaImage.GSWDDataType": [
                "predicted",
                "predicted",
                "predicted",
                "predicted",
                "predicted",
                "predicted",
                "predicted",
                "predicted",
                "predicted",
                "predicted",
                "measured",
                "predicted",
                "measured",
                "predicted",
                "measured",
                "predicted",
                "measured",
                "predicted",
                "measured",
                "predicted",
                "measured",
                "predicted",
                "measured",
                "predicted",
                "measured",
                "predicted",
                "measured",
                "predicted",
                "measured",
                "predicted",
                "measured",
                "predicted",
                "measured",
                "predicted",
                "measured",
                "predicted",
                "measured",
                "predicted",
                "measured",
                "predicted",
                "measured",
                "predicted",
                "measured",
                "predicted",
                "measured",
                "predicted",
                "measured",
                "predicted",
                "measured",
                "predicted",
                "measured",
                "predicted",
                "measured",
                "predicted",
                "measured",
                "predicted",
                "measured",
                "predicted",
                "measured",
                "predicted"
            ],
            "CsaImage.ICE_Dims": [
                "X_2_1_1_1_1_1_31_1_1_1_1_100",
                "X_2_1_1_1_1_1_1_1_1_2_1_100",
                "X_2_1_1_1_1_1_32_1_1_3_1_100",
                "X_2_1_1_1_1_1_2_1_1_4_1_100",
                "X_2_1_1_1_1_1_33_1_1_5_1_100",
                "X_2_1_1_1_1_1_3_1_1_6_1_100",
                "X_2_1_1_1_1_1_34_1_1_7_1_100",
                "X_2_1_1_1_1_1_4_1_1_8_1_100",
                "X_2_1_1_1_1_1_35_1_1_9_1_100",
                "X_2_1_1_1_1_1_5_1_1_10_1_100",
                "X_2_1_1_1_1_1_36_1_1_11_1_100",
                "X_2_1_1_1_1_1_6_1_1_12_1_100",
                "X_2_1_1_1_1_1_37_1_1_13_1_100",
                "X_2_1_1_1_1_1_7_1_1_14_1_100",
                "X_2_1_1_1_1_1_38_1_1_15_1_100",
                "X_2_1_1_1_1_1_8_1_1_16_1_100",
                "X_2_1_1_1_1_1_39_1_1_17_1_100",
                "X_2_1_1_1_1_1_9_1_1_18_1_100",
                "X_2_1_1_1_1_1_40_1_1_19_1_100",
                "X_2_1_1_1_1_1_10_1_1_20_1_100",
                "X_2_1_1_1_1_1_41_1_1_21_1_100",
                "X_2_1_1_1_1_1_11_1_1_22_1_100",
                "X_2_1_1_1_1_1_42_1_1_23_1_100",
                "X_2_1_1_1_1_1_12_1_1_24_1_100",
                "X_2_1_1_1_1_1_43_1_1_25_1_100",
                "X_2_1_1_1_1_1_13_1_1_26_1_100",
                "X_2_1_1_1_1_1_44_1_1_27_1_100",
                "X_2_1_1_1_1_1_14_1_1_28_1_100",
                "X_2_1_1_1_1_1_45_1_1_29_1_100",
                "X_2_1_1_1_1_1_15_1_1_30_1_100",
                "X_2_1_1_1_1_1_46_1_1_31_1_100",
                "X_2_1_1_1_1_1_16_1_1_32_1_100",
                "X_2_1_1_1_1_1_47_1_1_33_1_100",
                "X_2_1_1_1_1_1_17_1_1_34_1_100",
                "X_2_1_1_1_1_1_48_1_1_35_1_100",
                "X_2_1_1_1_1_1_18_1_1_36_1_100",
                "X_2_1_1_1_1_1_49_1_1_37_1_100",
                "X_2_1_1_1_1_1_19_1_1_38_1_100",
                "X_2_1_1_1_1_1_50_1_1_39_1_100",
                "X_2_1_1_1_1_1_20_1_1_40_1_100",
                "X_2_1_1_1_1_1_51_1_1_41_1_100",
                "X_2_1_1_1_1_1_21_1_1_42_1_100",
                "X_2_1_1_1_1_1_52_1_1_43_1_100",
                "X_2_1_1_1_1_1_22_1_1_44_1_100",
                "X_2_1_1_1_1_1_53_1_1_45_1_100",
                "X_2_1_1_1_1_1_23_1_1_46_1_100",
                "X_2_1_1_1_1_1_54_1_1_47_1_100",
                "X_2_1_1_1_1_1_24_1_1_48_1_100",
                "X_2_1_1_1_1_1_55_1_1_49_1_100",
                "X_2_1_1_1_1_1_25_1_1_50_1_100",
                "X_2_1_1_1_1_1_56_1_1_51_1_100",
                "X_2_1_1_1_1_1_26_1_1_52_1_100",
                "X_2_1_1_1_1_1_57_1_1_53_1_100",
                "X_2_1_1_1_1_1_27_1_1_54_1_100",
                "X_2_1_1_1_1_1_58_1_1_55_1_100",
                "X_2_1_1_1_1_1_28_1_1_56_1_100",
                "X_2_1_1_1_1_1_59_1_1_57_1_100",
                "X_2_1_1_1_1_1_29_1_1_58_1_100",
                "X_2_1_1_1_1_1_60_1_1_59_1_100",
                "X_2_1_1_1_1_1_30_1_1_60_1_100"
            ],
            "CsaImage.ProtocolSliceNumber": [
                0,
                1,
                2,
                3,
                4,
                5,
                6,
                7,
                8,
                9,
                10,
                11,
                12,
                13,
                14,
                15,
                16,
                17,
                18,
                19,
                20,
                21,
                22,
                23,
                24,
                25,
                26,
                27,
                28,
                29,
                30,
                31,
                32,
                33,
                34,
                35,
                36,
                37,
                38,
                39,
                40,
                41,
                42,
                43,
                44,
                45,
                46,
                47,
                48,
                49,
                50,
                51,
                52,
                53,
                54,
                55,
                56,
                57,
                58,
                59
            ],
            "CsaImage.RFSWDDataType": [
                "predicted",
                "predicted",
                "predicted",
                "predicted",
                "predicted",
                "predicted",
                "measured",
                "predicted",
                "measured",
                "predicted",
                "measured",
                "predicted",
                "measured",
                "predicted",
                "measured",
                "predicted",
                "measured",
                "predicted",
                "measured",
                "predicted",
                "measured",
                "predicted",
                "measured",
                "predicted",
                "measured",
                "predicted",
                "measured",
                "predicted",
                "measured",
                "predicted",
                "measured",
                "predicted",
                "measured",
                "predicted",
                "measured",
                "predicted",
                "measured",
                "predicted",
                "measured",
                "predicted",
                "measured",
                "predicted",
                "measured",
                "predicted",
                "measured",
                "predicted",
                "measured",
                "predicted",
                "measured",
                "predicted",
                "measured",
                "predicted",
                "measured",
                "predicted",
                "measured",
                "predicted",
                "measured",
                "predicted",
                "measured",
                "predicted"
            ],
            "CsaImage.SliceMeasurementDuration": [
                102312.5,
                102312.5,
                102312.5,
                102312.5,
                102310.0,
                102312.5,
                102310.0,
                102312.5,
                102310.0,
                102312.5,
                102312.5,
                102312.5,
                102312.5,
                102312.5,
                102312.5,
                102310.0,
                102312.5,
                102310.0,
                102312.5,
                102310.0,
                102312.5,
                102312.5,
                102312.5,
                102312.5,
                102312.5,
                102312.5,
                102312.5,
                102312.5,
                102312.5,
                102312.5,
                102310.0,
                102312.5,
                102310.0,
                102312.5,
                102312.5,
                102312.5,
                102312.5,
                102312.5,
                102312.5,
                102312.5,
                102312.5,
                102310.0,
                102312.5,
                102310.0,
                102312.5,
                102312.5,
                102312.5,
                102312.5,
                102312.5,
                102312.5,
                102312.5,
                102312.5,
                102312.5,
                102312.5,
                102310.0,
                102312.5,
                102310.0,
                102312.5,
                102310.0,
                102312.5
            ],
            "CsaImage.SlicePosition_PCS": [
                [
                    -100.91798636,
                    -104.78181685,
                    -60.39375039
                ],
                [
                    -101.11288544,
                    -104.8107878,
                    -58.00185509
                ],
                [
                    -101.30778452,
                    -104.83975852,
                    -55.60995599
                ],
                [
                    -101.50268337,
                    -104.86872948,
                    -53.21805688
                ],
                [
                    -101.69758245,
                    -104.89770043,
                    -50.82616158
                ],
                [
                    -101.89248153,
                    -104.92667127,
                    -48.43426247
                ],
                [
                    -102.08738049,
                    -104.95564223,
                    -46.04236336
                ],
                [
                    -102.28227957,
                    -104.98461307,
                    -43.65046807
                ],
                [
                    -102.47717854,
                    -105.01358402,
                    -41.25856896
                ],
                [
                    -102.67207756,
                    -105.04255486,
                    -38.86667176
                ],
                [
                    -102.86697664,
                    -105.07152582,
                    -36.47477456
                ],
                [
                    -103.06187566,
                    -105.10049666,
                    -34.08287545
                ],
                [
                    -103.25677466,
                    -105.12946761,
                    -31.69097825
                ],
                [
                    -103.4516737,
                    -105.15843845,
                    -29.29908105
                ],
                [
                    -103.64657272,
                    -105.18740941,
                    -26.90718194
                ],
                [
                    -103.84147174,
                    -105.21638036,
                    -24.51528474
                ],
                [
                    -104.03637078,
                    -105.2453512,
                    -22.12338658
                ],
                [
                    -104.2312698,
                    -105.27432216,
                    -19.73148938
                ],
                [
                    -104.42616882,
                    -105.303293,
                    -17.33959122
                ],
                [
                    -104.62106785,
                    -105.33226395,
                    -14.94769355
                ],
                [
                    -104.81596693,
                    -105.36123479,
                    -12.55579587
                ],
                [
                    -105.01086589,
                    -105.39020575,
                    -10.16389804
                ],
                [
                    -105.20576497,
                    -105.41917658,
                    -7.77200027
                ],
                [
                    -105.40066394,
                    -105.44814754,
                    -5.38010236
                ],
                [
                    -105.59556302,
                    -105.47711838,
                    -2.98820468
                ],
                [
                    -105.79046198,
                    -105.50608934,
                    -0.596307
                ],
                [
                    -105.98536106,
                    -105.53506017,
                    1.79559116
                ],
                [
                    -106.18026015,
                    -105.56403113,
                    4.18748836
                ],
                [
                    -106.37515899,
                    -105.59300197,
                    6.57938651
                ],
                [
                    -106.57005807,
                    -105.62197292,
                    8.97128372
                ],
                [
                    -106.76495715,
                    -105.65094376,
                    11.36318282
                ],
                [
                    -106.95985624,
                    -105.67991472,
                    13.75508003
                ],
                [
                    -107.15475508,
                    -105.70888556,
                    16.14697723
                ],
                [
                    -107.34965416,
                    -105.73785651,
                    18.53887634
                ],
                [
                    -107.54455324,
                    -105.76682735,
                    20.93077354
                ],
                [
                    -107.73945209,
                    -105.79579831,
                    23.32267265
                ],
                [
                    -107.93435117,
                    -105.82476914,
                    25.71456794
                ],
                [
                    -108.12925025,
                    -105.8537401,
                    28.10646705
                ],
                [
                    -108.32414933,
                    -105.88271094,
                    30.49836616
                ],
                [
                    -108.51904842,
                    -105.9116819,
                    32.89026145
                ],
                [
                    -108.7139475,
                    -105.94065273,
                    35.28216056
                ],
                [
                    -108.90884658,
                    -105.96962363,
                    37.67405967
                ],
                [
                    -109.10374566,
                    -105.99859453,
                    40.06595496
                ],
                [
                    -109.29864427,
                    -106.02756543,
                    42.45785407
                ],
                [
                    -109.49354335,
                    -106.05653632,
                    44.84974937
                ],
                [
                    -109.68844243,
                    -106.08550722,
                    47.24164848
                ],
                [
                    -109.88334151,
                    -106.11447812,
                    49.63354759
                ],
                [
                    -110.0782406,
                    -106.14344901,
                    52.02544288
                ],
                [
                    -110.27313968,
                    -106.17241991,
                    54.4173458
                ],
                [
                    -110.46803876,
                    -106.20139081,
                    56.80923728
                ],
                [
                    -110.66293784,
                    -106.23036177,
                    59.20113639
                ],
                [
                    -110.85783645,
                    -106.25933266,
                    61.5930355
                ],
                [
                    -111.05273553,
                    -106.28830356,
                    63.98493461
                ],
                [
                    -111.24763461,
                    -106.31727446,
                    66.37683372
                ],
                [
                    -111.4425337,
                    -106.34624535,
                    68.76873283
                ],
                [
                    -111.6374323,
                    -106.37521625,
                    71.16062431
                ],
                [
                    -111.83233186,
                    -106.40418715,
                    73.55252342
                ],
                [
                    -112.02723047,
                    -106.43315802,
                    75.94442252
                ],
                [
                    -112.22213002,
                    -106.46212891,
                    78.33632163
                ],
                [
                    -112.41702863,
                    -106.49109981,
                    80.72822074
