{
    "AcquisitionMatrixPE": 88,
    "AcquisitionNumber": 1,
    "AcquisitionTime": "20:27:7.262500",
    "BaseResolution": 88,
    "BodyPartExamined": "BRAIN",
    "ConsistencyInfo": "N4_VE11C_LATEST_20160120",
    "ConversionSoftware": "dcm2niix",
    "ConversionSoftwareVersion": "v1.0.20190902",
    "DeviceSerialNumber": "67050",
    "DwellTime": 9.5e-06,
    "EchoNumber": 2,
    "EchoTime": 0.00738,
    "EchoTime1": 0.00492,
    "EchoTime2": 0.00738,
    "FlipAngle": 60,
    "ImageOrientationPatientDICOM": [
        0.998414,
        0.0280385,
        -0.0488246,
        -0.0329464,
        0.994156,
        -0.102806
    ],
    "ImageType": [
        "ORIGINAL",
        "PRIMARY",
        "P",
        "ND"
    ],
    "ImagingFrequency": 123.251,
    "InPlanePhaseEncodingDirectionDICOM": "COL",
    "InstitutionAddress": "Olive_Street_60_Providence_RI_US_02912",
    "InstitutionName": "BROWN_UNIVERSITY_MRF",
    "InstitutionalDepartmentName": "Department",
    "IntendedFor": [
        "ses-01/func/sub-8006_ses-01_task-RDMmotion_run-04_bold.nii.gz",
        "ses-01/func/sub-8006_ses-01_task-RDMcolor_run-01_bold.nii.gz",
        "ses-01/func/sub-8006_ses-01_task-RDMmotion_run-03_bold.nii.gz",
        "ses-01/func/sub-8006_ses-01_task-RDMcolor_run-05_bold.nii.gz",
        "ses-01/func/sub-8006_ses-01_task-RDMcolor_run-03_bold.nii.gz",
        "ses-01/func/sub-8006_ses-01_task-RDMmotion_run-01_bold.nii.gz",
        "ses-01/func/sub-8006_ses-01_task-RDMcolor_run-06_bold.nii.gz",
        "ses-01/func/sub-8006_ses-01_task-RDMlocalizer_run-01_bold.nii.gz",
        "ses-01/func/sub-8006_ses-01_task-RDMcolor_run-02_bold.nii.gz",
        "ses-01/func/sub-8006_ses-01_task-RDMmotion_run-05_bold.nii.gz",
        "ses-01/func/sub-8006_ses-01_task-RDMmotion_run-06_bold.nii.gz",
        "ses-01/func/sub-8006_ses-01_task-RDMmotion_run-02_bold.nii.gz",
        "ses-01/func/sub-8006_ses-01_task-RDMcolor_run-04_bold.nii.gz"
    ],
    "MRAcquisitionType": "2D",
    "MagneticFieldStrength": 3,
    "Manufacturer": "Siemens",
    "ManufacturersModelName": "Prisma_fit",
    "Modality": "MR",
    "MultibandAccelerationFactor": 2,
    "PartialFourier": 1,
    "PatientPosition": "HFS",
    "PercentPhaseFOV": 100,
    "PhaseEncodingDirection": "j-",
    "PhaseEncodingSteps": 88,
    "PhaseResolution": 1,
    "PixelBandwidth": 600,
    "ProcedureStepDescription": "ASHENHAV_1222",
    "ProtocolName": "fmap_acq-greAP",
    "PulseSequenceDetails": "%SiemensSeq%_gre_field_mapping",
    "ReceiveCoilActiveElements": "HC1-7",
    "ReceiveCoilName": "HeadNeck_64",
    "ReconMatrixPE": 88,
    "RepetitionTime": 0.588,
    "SAR": 0.12024,
    "ScanningSequence": "GR",
    "SequenceName": "_fm2d2r",
    "SequenceVariant": "SP",
    "SeriesDescription": "fmap_acq-greAP",
    "SeriesNumber": 22,
    "ShimSetting": [
        1741,
        -9068,
        4403,
        269,
        -89,
        -72,
        6,
        -9
    ],
    "SliceThickness": 2.4,
    "SliceTiming": [
        0.29688,
        0,
        0.29688,
        0.01562,
        0.3125,
        0.01562,
        0.32812,
        0.03125,
        0.32812,
        0.03125,
        0.34375,
        0.04688,
        0.35938,
        0.0625,
        0.35938,
        0.0625,
        0.375,
        0.07812,
        0.375,
        0.09375,
        0.39062,
        0.09375,
        0.40625,
        0.10938,
        0.40625,
        0.125,
        0.42188,
        0.125,
        0.4375,
        0.14062,
        0.4375,
        0.14062,
        0.45312,
        0.15625,
        0.46875,
        0.17188,
        0.46875,
        0.17188,
        0.48438,
        0.1875,
        0.48438,
        0.20312,
        0.5,
        0.20312,
        0.51562,
        0.21875,
        0.51562,
        0.21875,
        0.53125,
        0.23438,
        0.53125,
        0.25,
        0.54688,
        0.25,
        0.5625,
        0.26562,
        0.5625,
        0.28125,
        0.57812,
        0.28125
    ],
    "SoftwareVersions": "syngo_MR_E11",
    "SpacingBetweenSlices": 2.4,
    "StationName": "AWP67050",
    "TxRefAmp": 217.047,
    "dcmmeta_affine": [
        [
            -2.393923759460449,
            -0.07899640500545502,
            -0.10957610607147217,
            113.24862670898438
        ],
        [
            -0.06722874939441681,
            2.383714199066162,
            -0.25020313262939453,
            -95.9968490600586
        ],
        [
            -0.11706799268722534,
            0.24649988114833832,
            2.3844070434570312,
            -50.25641632080078
        ],
        [
            0.0,
            0.0,
            0.0,
            1.0
        ]
    ],
    "dcmmeta_reorient_transform": [
        [
            0.0,
            -1.0,
            0.0,
            87.0
        ],
        [
            1.0,
            0.0,
            0.0,
            0.0
        ],
        [
            0.0,
            0.0,
            -1.0,
            59.0
        ],
        [
            0.0,
            0.0,
            0.0,
            1.0
        ]
    ],
    "dcmmeta_shape": [
        88,
        88,
        60
    ],
    "dcmmeta_slice_dim": 2,
    "dcmmeta_version": 0.6,
    "global": {
        "const": {
            "AcquisitionMatrix": [
                88,
                0,
                0,
                88
            ],
            "AcquisitionNumber": 1,
            "AngioFlag": "N",
            "BitsAllocated": 16,
            "BitsStored": 12,
            "BodyPartExamined": "BRAIN",
            "Columns": 88,
            "DeidentificationMethodCodeSequence": [
                {
                    "CodeMeaning": "XNAT DicomEdit 6 Script",
                    "CodeValue": "3",
                    "CodingSchemeDesignator": "XNAT",
                    "CodingSchemeVersion": "1.0"
                }
            ],
            "EchoNumbers": 2,
            "EchoTime": 7.38,
            "EchoTrainLength": 0,
            "FlipAngle": 60.0,
            "HighBit": 11,
            "ImageOrientationPatient": [
                0.99841374315827,
                0.02803853083823,
                -0.0488245661642,
                -0.0329463671984,
                0.99415569058131,
                -0.1028056407657
            ],
            "ImageType": [
                "ORIGINAL",
                "PRIMARY",
                "P",
                "ND"
            ],
            "ImagedNucleus": "1H",
            "ImagingFrequency": 123.250747,
            "InPlanePhaseEncodingDirection": "COL",
            "MRAcquisitionType": "2D",
            "MagneticFieldStrength": 3.0,
            "Manufacturer": "SIEMENS",
            "ManufacturerModelName": "Prisma_fit",
            "Modality": "MR",
            "NumberOfAverages": 1.0,
            "NumberOfPhaseEncodingSteps": 88,
            "PercentPhaseFieldOfView": 100.0,
            "PercentSampling": 100.0,
            "PerformedProcedureStepStartTime": "184918.066000",
            "PhotometricInterpretation": "MONOCHROME2",
            "PixelBandwidth": 600.0,
            "PixelRepresentation": 0,
            "PixelSpacing": [
                2.3977272510529,
                2.3977272510529
            ],
            "ProtocolName": "fmap_acq-greAP",
            "RepetitionTime": 588.0,
            "RescaleIntercept": -4096.0,
            "RescaleSlope": 2.0,
            "RescaleType": "US",
            "Rows": 88,
            "SAR": 0.12024024339388,
            "SamplesPerPixel": 1,
            "ScanningSequence": "GR",
            "SequenceName": "*fm2d2r",
            "SequenceVariant": "SP",
            "SeriesDescription": "fmap_acq-greAP",
            "SeriesNumber": 22,
            "SeriesTime": "202851.013000",
            "SliceThickness": 2.4000000953674,
            "SoftwareVersions": "syngo MR E11",
            "SpacingBetweenSlices": 2.4,
            "SpecificCharacterSet": "ISO_IR 100",
            "StudyID": "1",
            "StudyTime": "184917.972000",
            "TransmitCoilName": "Body",
            "VariableFlipAngleFlag": "N",
            "WindowCenterWidthExplanation": "Algo1",
            "dBdt": 0.0
        },
        "slices": {
            "AcquisitionTime": [
                "202707.262500",
                "202706.970000",
                "202707.272500",
                "202706.977500",
                "202707.282500",
                "202706.987500",
                "202707.292500",
                "202706.997500",
                "202707.302500",
                "202707.007500",
                "202707.312500",
                "202707.017500",
                "202707.322500",
                "202707.027500",
                "202707.332500",
                "202707.037500",
                "202707.342500",
                "202707.047500",
                "202707.350000",
                "202707.057500",
                "202707.360000",
                "202707.067500",
                "202707.370000",
                "202707.077500",
                "202707.380000",
                "202707.087500",
                "202707.390000",
                "202707.097500",
                "202707.400000",
                "202707.105000",
                "202707.410000",
                "202707.115000",
                "202707.420000",
                "202707.125000",
                "202707.430000",
                "202707.135000",
                "202707.440000",
                "202707.145000",
                "202707.450000",
                "202707.155000",
                "202707.460000",
                "202707.165000",
                "202707.467500",
                "202707.175000",
                "202707.477500",
                "202707.185000",
                "202707.487500",
                "202707.195000",
                "202707.497500",
                "202707.205000",
                "202707.507500",
                "202707.215000",
                "202707.517500",
                "202707.222500",
                "202707.527500",
                "202707.232500",
                "202707.537500",
                "202707.242500",
                "202707.547500",
                "202707.252500"
            ],
            "ContentTime": [
                "202851.072000",
                "202851.015000",
                "202851.073000",
                "202851.018000",
                "202851.075000",
                "202851.020000",
                "202851.077000",
                "202851.021000",
                "202851.079000",
                "202851.023000",
                "202851.081000",
                "202851.025000",
                "202851.083000",
                "202851.027000",
                "202851.085000",
                "202851.029000",
                "202851.087000",
                "202851.031000",
                "202851.089000",
                "202851.033000",
                "202851.091000",
                "202851.034000",
                "202851.093000",
                "202851.036000",
                "202851.095000",
                "202851.038000",
                "202851.096000",
                "202851.040000",
                "202851.098000",
                "202851.042000",
                "202851.100000",
                "202851.044000",
                "202851.102000",
                "202851.046000",
                "202851.104000",
                "202851.048000",
                "202851.106000",
                "202851.049000",
                "202851.108000",
                "202851.051000",
                "202851.110000",
                "202851.053000",
                "202851.111000",
                "202851.055000",
                "202851.113000",
                "202851.057000",
                "202851.115000",
                "202851.059000",
                "202851.117000",
                "202851.060000",
                "202851.119000",
                "202851.062000",
                "202851.121000",
                "202851.064000",
                "202851.123000",
                "202851.066000",
                "202851.124000",
                "202851.068000",
                "202851.126000",
                "202851.070000"
            ],
            "CsaImage.GSWDDataType": [
                "predicted",
                "predicted",
                "predicted",
                "predicted",
                "predicted",
                "predicted",
                "predicted",
                "predicted",
                "predicted",
                "predicted",
                "predicted",
                "predicted",
                "predicted",
                "predicted",
                "predicted",
                "predicted",
                "predicted",
                "predicted",
                "predicted",
                "predicted",
                "measured",
                "predicted",
                "measured",
                "predicted",
                "measured",
                "predicted",
                "measured",
                "predicted",
                "measured",
                "predicted",
                "measured",
                "predicted",
                "measured",
                "predicted",
                "measured",
                "predicted",
                "measured",
                "predicted",
                "measured",
                "predicted",
                "measured",
                "predicted",
                "measured",
                "predicted",
                "measured",
                "predicted",
                "measured",
                "predicted",
                "measured",
                "predicted",
                "measured",
                "predicted",
                "measured",
                "predicted",
                "measured",
                "predicted",
                "measured",
                "predicted",
                "measured",
                "predicted"
            ],
            "CsaImage.ICE_Dims": [
                "X_2_1_1_1_1_1_31_1_1_1_1_260",
                "X_2_1_1_1_1_1_1_1_1_2_1_260",
                "X_2_1_1_1_1_1_32_1_1_3_1_260",
                "X_2_1_1_1_1_1_2_1_1_4_1_260",
                "X_2_1_1_1_1_1_33_1_1_5_1_260",
                "X_2_1_1_1_1_1_3_1_1_6_1_260",
                "X_2_1_1_1_1_1_34_1_1_7_1_260",
                "X_2_1_1_1_1_1_4_1_1_8_1_260",
                "X_2_1_1_1_1_1_35_1_1_9_1_260",
                "X_2_1_1_1_1_1_5_1_1_10_1_260",
                "X_2_1_1_1_1_1_36_1_1_11_1_260",
                "X_2_1_1_1_1_1_6_1_1_12_1_260",
                "X_2_1_1_1_1_1_37_1_1_13_1_260",
                "X_2_1_1_1_1_1_7_1_1_14_1_260",
                "X_2_1_1_1_1_1_38_1_1_15_1_260",
                "X_2_1_1_1_1_1_8_1_1_16_1_260",
                "X_2_1_1_1_1_1_39_1_1_17_1_260",
                "X_2_1_1_1_1_1_9_1_1_18_1_260",
                "X_2_1_1_1_1_1_40_1_1_19_1_260",
                "X_2_1_1_1_1_1_10_1_1_20_1_260",
                "X_2_1_1_1_1_1_41_1_1_21_1_260",
                "X_2_1_1_1_1_1_11_1_1_22_1_260",
                "X_2_1_1_1_1_1_42_1_1_23_1_260",
                "X_2_1_1_1_1_1_12_1_1_24_1_260",
                "X_2_1_1_1_1_1_43_1_1_25_1_260",
                "X_2_1_1_1_1_1_13_1_1_26_1_260",
                "X_2_1_1_1_1_1_44_1_1_27_1_260",
                "X_2_1_1_1_1_1_14_1_1_28_1_260",
                "X_2_1_1_1_1_1_45_1_1_29_1_260",
                "X_2_1_1_1_1_1_15_1_1_30_1_260",
                "X_2_1_1_1_1_1_46_1_1_31_1_260",
                "X_2_1_1_1_1_1_16_1_1_32_1_260",
                "X_2_1_1_1_1_1_47_1_1_33_1_260",
                "X_2_1_1_1_1_1_17_1_1_34_1_260",
                "X_2_1_1_1_1_1_48_1_1_35_1_260",
                "X_2_1_1_1_1_1_18_1_1_36_1_260",
                "X_2_1_1_1_1_1_49_1_1_37_1_260",
                "X_2_1_1_1_1_1_19_1_1_38_1_260",
                "X_2_1_1_1_1_1_50_1_1_39_1_260",
                "X_2_1_1_1_1_1_20_1_1_40_1_260",
                "X_2_1_1_1_1_1_51_1_1_41_1_260",
                "X_2_1_1_1_1_1_21_1_1_42_1_260",
                "X_2_1_1_1_1_1_52_1_1_43_1_260",
                "X_2_1_1_1_1_1_22_1_1_44_1_260",
                "X_2_1_1_1_1_1_53_1_1_45_1_260",
                "X_2_1_1_1_1_1_23_1_1_46_1_260",
                "X_2_1_1_1_1_1_54_1_1_47_1_260",
                "X_2_1_1_1_1_1_24_1_1_48_1_260",
                "X_2_1_1_1_1_1_55_1_1_49_1_260",
                "X_2_1_1_1_1_1_25_1_1_50_1_260",
                "X_2_1_1_1_1_1_56_1_1_51_1_260",
                "X_2_1_1_1_1_1_26_1_1_52_1_260",
                "X_2_1_1_1_1_1_57_1_1_53_1_260",
                "X_2_1_1_1_1_1_27_1_1_54_1_260",
                "X_2_1_1_1_1_1_58_1_1_55_1_260",
                "X_2_1_1_1_1_1_28_1_1_56_1_260",
                "X_2_1_1_1_1_1_59_1_1_57_1_260",
                "X_2_1_1_1_1_1_29_1_1_58_1_260",
                "X_2_1_1_1_1_1_60_1_1_59_1_260",
                "X_2_1_1_1_1_1_30_1_1_60_1_260"
            ],
            "CsaImage.ProtocolSliceNumber": [
                0,
                1,
                2,
                3,
                4,
                5,
                6,
                7,
                8,
                9,
                10,
                11,
                12,
                13,
                14,
                15,
                16,
                17,
                18,
                19,
                20,
                21,
                22,
                23,
                24,
                25,
                26,
                27,
                28,
                29,
                30,
                31,
                32,
                33,
                34,
                35,
                36,
                37,
                38,
                39,
                40,
                41,
                42,
                43,
                44,
                45,
                46,
                47,
                48,
                49,
                50,
                51,
                52,
                53,
                54,
                55,
                56,
                57,
                58,
                59
            ],
            "CsaImage.RFSWDDataType": [
                "predicted",
                "predicted",
                "predicted",
                "predicted",
                "predicted",
                "predicted",
                "predicted",
                "predicted",
                "predicted",
                "predicted",
                "predicted",
                "predicted",
                "predicted",
                "predicted",
                "predicted",
                "predicted",
                "measured",
                "predicted",
                "measured",
                "predicted",
                "measured",
                "predicted",
                "measured",
                "predicted",
                "measured",
                "predicted",
                "measured",
                "predicted",
                "measured",
                "predicted",
                "measured",
                "predicted",
                "measured",
                "predicted",
                "measured",
                "predicted",
                "measured",
                "predicted",
                "measured",
                "predicted",
                "measured",
                "predicted",
                "measured",
                "predicted",
                "measured",
                "predicted",
                "measured",
                "predicted",
                "measured",
                "predicted",
                "measured",
                "predicted",
                "measured",
                "predicted",
                "measured",
                "predicted",
                "measured",
                "predicted",
                "measured",
                "predicted"
            ],
            "CsaImage.SliceMeasurementDuration": [
                102312.5,
                102310.0,
                102312.5,
                102312.5,
                102312.5,
                102312.5,
                102312.5,
                102312.5,
                102312.5,
                102312.5,
                102312.5,
                102312.5,
                102310.0,
                102312.5,
                102310.0,
                102312.5,
                102310.0,
                102312.5,
                102312.5,
                102312.5,
                102312.5,
                102312.5,
                102312.5,
                102310.0,
                102312.5,
                102310.0,
                102312.5,
                102310.0,
                102312.5,
                102312.5,
                102312.5,
                102312.5,
                102312.5,
                102312.5,
                102312.5,
                102312.5,
                102312.5,
                102312.5,
                102310.0,
                102312.5,
                102310.0,
                102312.5,
                102312.5,
                102312.5,
                102312.5,
                102312.5,
                102312.5,
                102312.5,
                102312.5,
                102310.0,
                102312.5,
                102310.0,
                102312.5,
                102312.5,
                102312.5,
                102312.5,
                102312.5,
                102312.5,
                102312.5,
                102312.5
            ],
            "CsaImage.SlicePosition_PCS": [
                [
                    -106.375937,
                    -111.38626559,
                    -28.81085938
                ],
                [
                    -106.26636125,
                    -111.13606293,
                    -26.42645615
                ],
                [
                    -106.15678502,
                    -110.88586004,
                    -24.04204911
                ],
                [
                    -106.0472088,
                    -110.63565738,
                    -21.65764207
                ],
                [
                    -105.93763305,
                    -110.38545449,
                    -19.27323884
                ],
                [
                    -105.82805682,
                    -110.13525183,
                    -16.88883179
                ],
                [
                    -105.7184806,
                    -109.88504894,
                    -14.50442475
                ],
                [
                    -105.60890461,
                    -109.63484616,
                    -12.12001962
                ],
                [
                    -105.49932839,
                    -109.38464339,
                    -9.73561448
                ],
                [
                    -105.3897524,
                    -109.13444061,
                    -7.35120744
                ],
                [
                    -105.28017641,
                    -108.88423784,
                    -4.9668023
                ],
                [
                    -105.17060019,
                    -108.63403506,
                    -2.58239526
                ],
                [
                    -105.0610242,
                    -108.38383229,
                    -0.19799012
                ],
                [
                    -104.95144797,
                    -108.13362951,
                    2.18641597
                ],
                [
                    -104.84187199,
                    -107.88342674,
                    4.57082206
                ],
                [
                    -104.732296,
                    -107.63322396,
                    6.95522815
                ],
                [
                    -104.62271978,
                    -107.38302119,
                    9.33963376
                ],
                [
                    -104.51314379,
                    -107.13281841,
                    11.72403985
                ],
                [
                    -104.40356756,
                    -106.88261564,
                    14.10844558
                ],
                [
                    -104.29399158,
                    -106.63241286,
                    16.49285158
                ],
                [
                    -104.18441535,
                    -106.38221009,
                    18.87725741
                ],
                [
                    -104.07483936,
                    -106.13200731,
                    21.26166326
                ],
                [
                    -103.96526338,
                    -105.88180454,
                    23.64606935
                ],
                [
                    -103.85568715,
                    -105.63160164,
                    26.03047496
                ],
                [
                    -103.74611105,
                    -105.38139899,
                    28.41488105
                ],
                [
                    -103.63653506,
                    -105.13119609,
                    30.79928714
                ],
                [
                    -103.52695895,
                    -104.88099344,
                    33.18369323
                ],
                [
                    -103.41738285,
                    -104.63079054,
                    35.56809837
                ],
                [
                    -103.30780674,
                    -104.38058789,
                    37.95250541
                ],
                [
                    -103.19823064,
                    -104.13038499,
                    40.33691055
                ],
                [
                    -103.08865453,
                    -103.88018234,
                    42.72131759
                ],
                [
                    -102.97907854,
                    -103.62997968,
                    45.10572272
                ],
                [
                    -102.86950244,
                    -103.37977655,
                    47.49012786
                ],
                [
                    -102.75992633,
                    -103.12957389,
                    49.8745349
                ],
                [
                    -102.65035022,
                    -102.87937124,
                    52.25894195
                ],
                [
                    -102.54077412,
                    -102.6291681,
                    54.64334518
                ],
                [
                    -102.43119807,
                    -102.37896545,
                    57.02775222
                ],
                [
                    -102.32162197,
                    -102.12876279,
                    59.41215926
                ],
                [
                    -102.21204589,
                    -101.87856014,
                    61.79656249
                ],
                [
                    -102.10246978,
                    -101.628357,
                    64.18096954
                ],
                [
                    -101.99289371,
                    -101.37815435,
                    66.56537658
                ],
                [
                    -101.88331762,
                    -101.12795169,
                    68.94978362
                ],
                [
                    -101.77374152,
                    -100.87774904,
                    71.33418685
                ],
                [
                    -101.66416543,
                    -100.6275459,
                    73.71859389
                ],
                [
                    -101.55458934,
                    -100.37734325,
                    76.10300094
                ],
                [
                    -101.44501327,
                    -100.12714059,
                    78.48740417
                ],
                [
                    -101.33543719,
                    -99.87693794,
                    80.87181121
                ],
                [
                    -101.22586108,
                    -99.62673528,
                    83.25621825
                ],
                [
                    -101.11628498,
                    -99.37653215,
                    85.6406253
                ],
                [
                    -101.00670893,
                    -99.12632902,
                    88.02503234
                ],
                [
                    -100.89713283,
                    -98.87612684,
                    90.40943175
                ],
                [
                    -100.78755678,
                    -98.6259237,
                    92.7938388
                ],
                [
                    -100.67798067,
                    -98.37572057,
                    95.17824584
                ],
                [
                    -100.56840457,
                    -98.12551839,
                    97.56265289
                ],
                [
                    -100.45882846,
                    -97.87531526,
                    99.94705993
                ],
                [
                    -100.34925235,
                    -97.62511308,
                    102.33146697
                ],
                [
                    -100.23967625,
                    -97.37490995,
                    104.71587402
                ],
                [
                    -100.13010026,
                    -97.12470682,
                    107.10027343
                ],
                [
                    -100.02052416,
                    -96.87450464,
                    109.48468047
                ],
                [
                    -99.91094805,
                    -96.6243015,
                    111.86908752
                ]
