{
    "AcquisitionMatrixPE": 88,
    "AcquisitionNumber": 1,
    "AcquisitionTime": "10:27:37.342500",
    "BaseResolution": 88,
    "BodyPartExamined": "BRAIN",
    "ConsistencyInfo": "N4_VE11C_LATEST_20160120",
    "ConversionSoftware": "dcm2niix",
    "ConversionSoftwareVersion": "v1.0.20190902",
    "DeviceSerialNumber": "67050",
    "DwellTime": 9.5e-06,
    "EchoNumber": 2,
    "EchoTime": 0.00738,
    "EchoTime1": 0.00492,
    "EchoTime2": 0.00738,
    "FlipAngle": 60,
    "ImageOrientationPatientDICOM": [
        0.998694,
        -0.00782186,
        0.0504855,
        0.00540348,
        0.998839,
        0.0478624
    ],
    "ImageType": [
        "ORIGINAL",
        "PRIMARY",
        "P",
        "ND"
    ],
    "ImagingFrequency": 123.251,
    "InPlanePhaseEncodingDirectionDICOM": "COL",
    "InstitutionAddress": "Olive_Street_60_Providence_RI_US_02912",
    "InstitutionName": "BROWN_UNIVERSITY_MRF",
    "InstitutionalDepartmentName": "Department",
    "IntendedFor": [
        "ses-01/func/sub-8018_ses-01_task-RDMmotion_run-01_bold.nii.gz",
        "ses-01/func/sub-8018_ses-01_task-RDMcolor_run-03_bold.nii.gz",
        "ses-01/func/sub-8018_ses-01_task-RDMmotion_run-02_bold.nii.gz",
        "ses-01/func/sub-8018_ses-01_task-RDMcolor_run-02_bold.nii.gz",
        "ses-01/func/sub-8018_ses-01_task-RDMmotion_run-05_bold.nii.gz",
        "ses-01/func/sub-8018_ses-01_task-RDMmotion_run-04_bold.nii.gz",
        "ses-01/func/sub-8018_ses-01_task-RDMmotion_run-06_bold.nii.gz",
        "ses-01/func/sub-8018_ses-01_task-RDMcolor_run-05_bold.nii.gz",
        "ses-01/func/sub-8018_ses-01_task-RDMcolor_run-01_bold.nii.gz",
        "ses-01/func/sub-8018_ses-01_task-RDMlocalizer_run-02_bold.nii.gz",
        "ses-01/func/sub-8018_ses-01_task-RDMlocalizer_run-01_bold.nii.gz",
        "ses-01/func/sub-8018_ses-01_task-RDMcolor_run-06_bold.nii.gz",
        "ses-01/func/sub-8018_ses-01_task-RDMcolor_run-04_bold.nii.gz",
        "ses-01/func/sub-8018_ses-01_task-RDMmotion_run-03_bold.nii.gz"
    ],
    "MRAcquisitionType": "2D",
    "MagneticFieldStrength": 3,
    "Manufacturer": "Siemens",
    "ManufacturersModelName": "Prisma_fit",
    "Modality": "MR",
    "PartialFourier": 1,
    "PatientPosition": "HFS",
    "PercentPhaseFOV": 100,
    "PhaseEncodingDirection": "j-",
    "PhaseEncodingSteps": 88,
    "PhaseResolution": 1,
    "PixelBandwidth": 600,
    "ProcedureStepDescription": "ASHENHAV_1222",
    "ProtocolName": "fmap_acq-greAP",
    "PulseSequenceDetails": "%SiemensSeq%_gre_field_mapping",
    "ReceiveCoilActiveElements": "HC1-7;NC1",
    "ReceiveCoilName": "HeadNeck_64",
    "ReconMatrixPE": 88,
    "RepetitionTime": 0.588,
    "SAR": 0.12874,
    "ScanningSequence": "GR",
    "SequenceName": "_fm2d2r",
    "SequenceVariant": "SP",
    "SeriesDescription": "fmap_acq-greAP",
    "SeriesNumber": 22,
    "ShimSetting": [
        1748,
        -9121,
        4431,
        338,
        -71,
        -222,
        97,
        -19
    ],
    "SliceThickness": 2.4,
    "SliceTiming": [
        0.29688,
        0,
        0.30469,
        0.00781,
        0.3125,
        0.02344,
        0.32812,
        0.03125,
        0.33594,
        0.03906,
        0.34375,
        0.04688,
        0.35156,
        0.0625,
        0.35938,
        0.07031,
        0.375,
        0.07812,
        0.38281,
        0.09375,
        0.39062,
        0.10156,
        0.40625,
        0.10938,
        0.41406,
        0.11719,
        0.42188,
        0.125,
        0.42969,
        0.14062,
        0.44531,
        0.14844,
        0.45312,
        0.15625,
        0.46094,
        0.17188,
        0.47656,
        0.17969,
        0.48438,
        0.1875,
        0.49219,
        0.19531,
        0.5,
        0.21094,
        0.50781,
        0.21875,
        0.52344,
        0.22656,
        0.53125,
        0.23438,
        0.53906,
        0.24219,
        0.54688,
        0.25781,
        0.5625,
        0.26562,
        0.57031,
        0.27344,
        0.57812,
        0.28906
    ],
    "SoftwareVersions": "syngo_MR_E11",
    "SpacingBetweenSlices": 2.4,
    "StationName": "AWP67050",
    "TxRefAmp": 237.206,
    "dcmmeta_affine": [
        [
            -2.3945960998535156,
            0.012956079095602036,
            0.12192296981811523,
            103.66329193115234
        ],
        [
            0.018754692748188972,
            2.394944190979004,
            0.11406517028808594,
            -98.49488830566406
        ],
        [
            0.12105046957731247,
            -0.11476092040538788,
            2.3941879272460938,
            -61.099632263183594
        ],
        [
            0.0,
            0.0,
            0.0,
            1.0
        ]
    ],
    "dcmmeta_reorient_transform": [
        [
            0.0,
            -1.0,
            0.0,
            87.0
        ],
        [
            1.0,
            0.0,
            0.0,
            0.0
        ],
        [
            0.0,
            0.0,
            -1.0,
            59.0
        ],
        [
            0.0,
            0.0,
            0.0,
            1.0
        ]
    ],
    "dcmmeta_shape": [
        88,
        88,
        60
    ],
    "dcmmeta_slice_dim": 2,
    "dcmmeta_version": 0.6,
    "global": {
        "const": {
            "AcquisitionMatrix": [
                88,
                0,
                0,
                88
            ],
            "AcquisitionNumber": 1,
            "AngioFlag": "N",
            "BitsAllocated": 16,
            "BitsStored": 12,
            "BodyPartExamined": "BRAIN",
            "Columns": 88,
            "DeidentificationMethodCodeSequence": [
                {
                    "CodeMeaning": "XNAT DicomEdit 6 Script",
                    "CodeValue": "3",
                    "CodingSchemeDesignator": "XNAT",
                    "CodingSchemeVersion": "1.0"
                }
            ],
            "EchoNumbers": 2,
            "EchoTime": 7.38,
            "EchoTrainLength": 0,
            "FlipAngle": 60.0,
            "HighBit": 11,
            "ImageOrientationPatient": [
                0.99869416348035,
                -0.0078218621648,
                0.05048550586619,
                0.00540348339647,
                0.99883932415374,
                0.04786237448433
            ],
            "ImageType": [
                "ORIGINAL",
                "PRIMARY",
                "P",
                "ND"
            ],
            "ImagedNucleus": "1H",
            "ImagingFrequency": 123.250704,
            "InPlanePhaseEncodingDirection": "COL",
            "MRAcquisitionType": "2D",
            "MagneticFieldStrength": 3.0,
            "Manufacturer": "SIEMENS",
            "ManufacturerModelName": "Prisma_fit",
            "Modality": "MR",
            "NumberOfAverages": 1.0,
            "NumberOfPhaseEncodingSteps": 88,
            "PercentPhaseFieldOfView": 100.0,
            "PercentSampling": 100.0,
            "PerformedProcedureStepStartTime": "084905.533000",
            "PhotometricInterpretation": "MONOCHROME2",
            "PixelBandwidth": 600.0,
            "PixelRepresentation": 0,
            "PixelSpacing": [
                2.3977272510529,
                2.3977272510529
            ],
            "ProtocolName": "fmap_acq-greAP",
            "RepetitionTime": 588.0,
            "RescaleIntercept": -4096.0,
            "RescaleSlope": 2.0,
            "RescaleType": "US",
            "Rows": 88,
            "SAR": 0.12874037367945,
            "SamplesPerPixel": 1,
            "ScanningSequence": "GR",
            "SequenceName": "*fm2d2r",
            "SequenceVariant": "SP",
            "SeriesDescription": "fmap_acq-greAP",
            "SeriesNumber": 22,
            "SeriesTime": "102921.693000",
            "SliceThickness": 2.4000000953674,
            "SoftwareVersions": "syngo MR E11",
            "SpacingBetweenSlices": 2.4,
            "SpecificCharacterSet": "ISO_IR 100",
            "StudyID": "1",
            "StudyTime": "084905.367000",
            "TransmitCoilName": "Body",
            "VariableFlipAngleFlag": "N",
            "WindowCenterWidthExplanation": "Algo1",
            "dBdt": 0.0
        },
        "slices": {
            "AcquisitionTime": [
                "102737.342500",
                "102737.047500",
                "102737.352500",
                "102737.057500",
                "102737.362500",
                "102737.067500",
                "102737.372500",
                "102737.077500",
                "102737.382500",
                "102737.087500",
                "102737.392500",
                "102737.097500",
                "102737.400000",
                "102737.107500",
                "102737.410000",
                "102737.117500",
                "102737.420000",
                "102737.127500",
                "102737.430000",
                "102737.137500",
                "102737.440000",
                "102737.147500",
                "102737.450000",
                "102737.155000",
                "102737.460000",
                "102737.165000",
                "102737.470000",
                "102737.175000",
                "102737.480000",
                "102737.185000",
                "102737.490000",
                "102737.195000",
                "102737.500000",
                "102737.205000",
                "102737.510000",
                "102737.215000",
                "102737.520000",
                "102737.225000",
                "102737.527500",
                "102737.235000",
                "102737.537500",
                "102737.245000",
                "102737.547500",
                "102737.255000",
                "102737.557500",
                "102737.265000",
                "102737.567500",
                "102737.275000",
                "102737.577500",
                "102737.282500",
                "102737.587500",
                "102737.292500",
                "102737.597500",
                "102737.302500",
                "102737.607500",
                "102737.312500",
                "102737.617500",
                "102737.322500",
                "102737.627500",
                "102737.332500"
            ],
            "ContentTime": [
                "102921.754000",
                "102921.697000",
                "102921.756000",
                "102921.700000",
                "102921.758000",
                "102921.701000",
                "102921.760000",
                "102921.703000",
                "102921.762000",
                "102921.705000",
                "102921.763000",
                "102921.707000",
                "102921.765000",
                "102921.709000",
                "102921.767000",
                "102921.711000",
                "102921.769000",
                "102921.713000",
                "102921.771000",
                "102921.715000",
                "102921.773000",
                "102921.717000",
                "102921.775000",
                "102921.718000",
                "102921.777000",
                "102921.720000",
                "102921.778000",
                "102921.722000",
                "102921.780000",
                "102921.724000",
                "102921.782000",
                "102921.726000",
                "102921.784000",
                "102921.728000",
                "102921.786000",
                "102921.730000",
                "102921.788000",
                "102921.732000",
                "102921.790000",
                "102921.733000",
                "102921.792000",
                "102921.735000",
                "102921.794000",
                "102921.737000",
                "102921.795000",
                "102921.739000",
                "102921.797000",
                "102921.741000",
                "102921.799000",
                "102921.743000",
                "102921.801000",
                "102921.745000",
                "102921.803000",
                "102921.747000",
                "102921.805000",
                "102921.748000",
                "102921.807000",
                "102921.750000",
                "102921.809000",
                "102921.752000"
            ],
            "CsaImage.GSWDDataType": [
                "predicted",
                "predicted",
                "predicted",
                "predicted",
                "predicted",
                "predicted",
                "predicted",
                "predicted",
                "predicted",
                "predicted",
                "predicted",
                "predicted",
                "predicted",
                "predicted",
                "predicted",
                "predicted",
                "predicted",
                "predicted",
                "predicted",
                "predicted",
                "predicted",
                "predicted",
                "predicted",
                "predicted",
                "predicted",
                "predicted",
                "predicted",
                "predicted",
                "predicted",
                "predicted",
                "measured",
                "predicted",
                "measured",
                "predicted",
                "measured",
                "predicted",
                "measured",
                "predicted",
                "measured",
                "predicted",
                "measured",
                "predicted",
                "measured",
                "predicted",
                "measured",
                "predicted",
                "measured",
                "predicted",
                "measured",
                "predicted",
                "measured",
                "predicted",
                "measured",
                "predicted",
                "measured",
                "predicted",
                "measured",
                "predicted",
                "measured",
                "predicted"
            ],
            "CsaImage.ICE_Dims": [
                "X_2_1_1_1_1_1_31_1_1_1_1_599",
                "X_2_1_1_1_1_1_1_1_1_2_1_599",
                "X_2_1_1_1_1_1_32_1_1_3_1_599",
                "X_2_1_1_1_1_1_2_1_1_4_1_599",
                "X_2_1_1_1_1_1_33_1_1_5_1_599",
                "X_2_1_1_1_1_1_3_1_1_6_1_599",
                "X_2_1_1_1_1_1_34_1_1_7_1_599",
                "X_2_1_1_1_1_1_4_1_1_8_1_599",
                "X_2_1_1_1_1_1_35_1_1_9_1_599",
                "X_2_1_1_1_1_1_5_1_1_10_1_599",
                "X_2_1_1_1_1_1_36_1_1_11_1_599",
                "X_2_1_1_1_1_1_6_1_1_12_1_599",
                "X_2_1_1_1_1_1_37_1_1_13_1_599",
                "X_2_1_1_1_1_1_7_1_1_14_1_599",
                "X_2_1_1_1_1_1_38_1_1_15_1_599",
                "X_2_1_1_1_1_1_8_1_1_16_1_599",
                "X_2_1_1_1_1_1_39_1_1_17_1_599",
                "X_2_1_1_1_1_1_9_1_1_18_1_599",
                "X_2_1_1_1_1_1_40_1_1_19_1_599",
                "X_2_1_1_1_1_1_10_1_1_20_1_599",
                "X_2_1_1_1_1_1_41_1_1_21_1_599",
                "X_2_1_1_1_1_1_11_1_1_22_1_599",
                "X_2_1_1_1_1_1_42_1_1_23_1_599",
                "X_2_1_1_1_1_1_12_1_1_24_1_599",
                "X_2_1_1_1_1_1_43_1_1_25_1_599",
                "X_2_1_1_1_1_1_13_1_1_26_1_599",
                "X_2_1_1_1_1_1_44_1_1_27_1_599",
                "X_2_1_1_1_1_1_14_1_1_28_1_599",
                "X_2_1_1_1_1_1_45_1_1_29_1_599",
                "X_2_1_1_1_1_1_15_1_1_30_1_599",
                "X_2_1_1_1_1_1_46_1_1_31_1_599",
                "X_2_1_1_1_1_1_16_1_1_32_1_599",
                "X_2_1_1_1_1_1_47_1_1_33_1_599",
                "X_2_1_1_1_1_1_17_1_1_34_1_599",
                "X_2_1_1_1_1_1_48_1_1_35_1_599",
                "X_2_1_1_1_1_1_18_1_1_36_1_599",
                "X_2_1_1_1_1_1_49_1_1_37_1_599",
                "X_2_1_1_1_1_1_19_1_1_38_1_599",
                "X_2_1_1_1_1_1_50_1_1_39_1_599",
                "X_2_1_1_1_1_1_20_1_1_40_1_599",
                "X_2_1_1_1_1_1_51_1_1_41_1_599",
                "X_2_1_1_1_1_1_21_1_1_42_1_599",
                "X_2_1_1_1_1_1_52_1_1_43_1_599",
                "X_2_1_1_1_1_1_22_1_1_44_1_599",
                "X_2_1_1_1_1_1_53_1_1_45_1_599",
                "X_2_1_1_1_1_1_23_1_1_46_1_599",
                "X_2_1_1_1_1_1_54_1_1_47_1_599",
                "X_2_1_1_1_1_1_24_1_1_48_1_599",
                "X_2_1_1_1_1_1_55_1_1_49_1_599",
                "X_2_1_1_1_1_1_25_1_1_50_1_599",
                "X_2_1_1_1_1_1_56_1_1_51_1_599",
                "X_2_1_1_1_1_1_26_1_1_52_1_599",
                "X_2_1_1_1_1_1_57_1_1_53_1_599",
                "X_2_1_1_1_1_1_27_1_1_54_1_599",
                "X_2_1_1_1_1_1_58_1_1_55_1_599",
                "X_2_1_1_1_1_1_28_1_1_56_1_599",
                "X_2_1_1_1_1_1_59_1_1_57_1_599",
                "X_2_1_1_1_1_1_29_1_1_58_1_599",
                "X_2_1_1_1_1_1_60_1_1_59_1_599",
                "X_2_1_1_1_1_1_30_1_1_60_1_599"
            ],
            "CsaImage.ProtocolSliceNumber": [
                0,
                1,
                2,
                3,
                4,
                5,
                6,
                7,
                8,
                9,
                10,
                11,
                12,
                13,
                14,
                15,
                16,
                17,
                18,
                19,
                20,
                21,
                22,
                23,
                24,
                25,
                26,
                27,
                28,
                29,
                30,
                31,
                32,
                33,
                34,
                35,
                36,
                37,
                38,
                39,
                40,
                41,
                42,
                43,
                44,
                45,
                46,
                47,
                48,
                49,
                50,
                51,
                52,
                53,
                54,
                55,
                56,
                57,
                58,
                59
            ],
            "CsaImage.RFSWDDataType": [
                "predicted",
                "predicted",
                "predicted",
                "predicted",
                "predicted",
                "predicted",
                "predicted",
                "predicted",
                "predicted",
                "predicted",
                "predicted",
                "predicted",
                "predicted",
                "predicted",
                "predicted",
                "predicted",
                "predicted",
                "predicted",
                "predicted",
                "predicted",
                "predicted",
                "predicted",
                "predicted",
                "predicted",
                "measured",
                "predicted",
                "measured",
                "predicted",
                "measured",
                "predicted",
                "measured",
                "predicted",
                "measured",
                "predicted",
                "measured",
                "predicted",
                "measured",
                "predicted",
                "measured",
                "predicted",
                "measured",
                "predicted",
                "measured",
                "predicted",
                "measured",
                "predicted",
                "measured",
                "predicted",
                "measured",
                "predicted",
                "measured",
                "predicted",
                "measured",
                "predicted",
                "measured",
                "predicted",
                "measured",
                "predicted",
                "measured",
                "predicted"
            ],
            "CsaImage.SliceMeasurementDuration": [
                102312.5,
                102312.5,
                102312.5,
                102312.5,
                102312.5,
                102312.5,
                102312.5,
                102312.5,
                102310.0,
                102312.5,
                102310.0,
                102312.5,
                102312.5,
                102312.5,
                102312.5,
                102312.5,
                102312.5,
                102312.5,
                102312.5,
                102310.0,
                102312.5,
                102310.0,
                102312.5,
                102312.5,
                102312.5,
                102312.5,
                102312.5,
                102312.5,
                102312.5,
                102312.5,
                102312.5,
                102312.5,
                102310.0,
                102312.5,
                102310.0,
                102312.5,
                102310.0,
                102312.5,
                102312.5,
                102312.5,
                102312.5,
                102312.5,
                102312.5,
                102310.0,
                102312.5,
                102310.0,
                102312.5,
                102310.0,
                102312.5,
                102312.5,
                102312.5,
                102312.5,
                102312.5,
                102312.5,
                102312.5,
                102312.5,
                102312.5,
                102312.5,
                102310.0,
                102312.5
            ],
            "CsaImage.SlicePosition_PCS": [
                [
                    -104.79046677,
                    -109.86527474,
                    -71.08368621
                ],
                [
                    -104.91238986,
                    -109.97933991,
                    -68.68950209
                ],
                [
                    -105.03431289,
                    -110.0934046,
                    -66.29531798
                ],
                [
                    -105.15623597,
                    -110.20746977,
                    -63.90113006
                ],
                [
                    -105.27815906,
                    -110.32153494,
                    -61.50694594
                ],
                [
                    -105.40008215,
                    -110.43559964,
                    -59.11276183
                ],
                [
                    -105.52200521,
                    -110.54966481,
                    -56.7185739
                ],
                [
                    -105.6439283,
                    -110.6637295,
                    -54.32438979
                ],
                [
                    -105.76585138,
                    -110.77779467,
                    -51.93020568
                ],
                [
                    -105.88777445,
                    -110.89185984,
                    -49.53601775
                ],
                [
                    -106.00969753,
                    -111.00592454,
                    -47.14183364
                ],
                [
                    -106.13162061,
                    -111.11998971,
                    -44.74764571
                ],
                [
                    -106.25354369,
                    -111.2340544,
                    -42.3534616
                ],
                [
                    -106.37546678,
                    -111.34811957,
                    -39.95927749
                ],
                [
                    -106.49738983,
                    -111.46218474,
                    -37.56509147
                ],
                [
                    -106.61931292,
                    -111.57624943,
                    -35.17090545
                ],
                [
                    -106.74123601,
                    -111.6903146,
                    -32.77671943
                ],
                [
                    -106.8631591,
                    -111.8043793,
                    -30.38253531
                ],
                [
                    -106.98508213,
                    -111.91844447,
                    -27.98834929
                ],
                [
                    -107.10700522,
                    -112.03250964,
                    -25.59416423
                ],
                [
                    -107.22892831,
                    -112.14657433,
                    -23.19997821
                ],
                [
                    -107.3508514,
                    -112.2606395,
                    -20.80579314
                ],
                [
                    -107.47277449,
                    -112.37470467,
                    -18.41160807
                ],
                [
                    -107.59469758,
                    -112.48876936,
                    -16.01742205
                ],
                [
                    -107.71662067,
                    -112.60283454,
                    -13.62323675
                ],
                [
                    -107.83854375,
                    -112.71689971,
                    -11.22905127
                ],
                [
                    -107.96046684,
                    -112.83096392,
                    -8.8348659
                ],
                [
                    -108.08238981,
                    -112.94502909,
                    -6.44068036
                ],
                [
                    -108.20431302,
                    -113.05909426,
                    -4.04649482
                ],
                [
                    -108.32623599,
                    -113.17315943,
                    -1.65230975
                ],
                [
                    -108.4481592,
                    -113.2872246,
                    0.74187627
                ],
                [
                    -108.57008217,
                    -113.40128882,
                    3.13606134
                ],
                [
                    -108.69200538,
                    -113.51535399,
                    5.5302464
                ],
                [
                    -108.81392835,
                    -113.62941916,
                    7.92443147
                ],
                [
                    -108.93585132,
                    -113.74348433,
                    10.31861749
                ],
                [
                    -109.05777453,
                    -113.8575495,
                    12.71280351
                ],
                [
                    -109.1796975,
                    -113.97161467,
                    15.10698953
                ],
                [
                    -109.3016207,
                    -114.08567889,
                    17.50117364
                ],
                [
                    -109.42354367,
                    -114.19974406,
                    19.89535966
                ],
                [
                    -109.54546688,
                    -114.31380923,
                    22.28954377
                ],
                [
                    -109.66738985,
                    -114.4278744,
                    24.6837317
                ],
                [
                    -109.78931306,
                    -114.54193957,
                    27.07791581
                ],
                [
                    -109.91123603,
                    -114.65600379,
                    29.47209993
                ],
                [
                    -110.033159,
                    -114.77006896,
                    31.86628785
                ],
                [
                    -110.15508197,
                    -114.88413413,
                    34.26047197
                ],
                [
                    -110.27700542,
                    -114.9981993,
                    36.65465608
                ],
                [
                    -110.39892839,
                    -115.11226447,
                    39.048844
                ],
                [
                    -110.52085136,
                    -115.22632868,
                    41.44302812
                ],
                [
                    -110.64277433,
                    -115.34039385,
                    43.83721223
                ],
                [
                    -110.76469777,
                    -115.45445902,
                    46.23140016
                ],
                [
                    -110.88662074,
                    -115.56852419,
                    48.62558427
                ],
                [
                    -111.00854371,
                    -115.68258936,
                    51.01976838
                ],
                [
                    -111.13046668,
                    -115.79665358,
                    53.41395631
                ],
                [
                    -111.25239013,
                    -115.91071875,
                    55.80814424
                ],
                [
                    -111.3743131,
                    -116.02478392,
                    58.20232453
                ],
                [
                    -111.49623607,
                    -116.13884909,
                    60.59651246
                ],
                [
                    -111.61815904,
                    -116.25291426,
                    62.99070039
                ],
                [
                    -111.74008201,
                    -116.36697848,
                    65.38488069
                ],
                [
                    -111.86200545,
                    -116.48104365,
                    67.77906861
                ],
                [
                    -111.98392842,
