{
    "AcquisitionMatrixPE": 88,
    "AcquisitionNumber": 1,
    "AcquisitionTime": "14:17:51.940000",
    "BaseResolution": 88,
    "BodyPartExamined": "BRAIN",
    "ConsistencyInfo": "N4_VE11C_LATEST_20160120",
    "ConversionSoftware": "dcm2niix",
    "ConversionSoftwareVersion": "v1.0.20190902",
    "DeviceSerialNumber": "67050",
    "DwellTime": 9.5e-06,
    "EchoNumber": 2,
    "EchoTime": 0.00738,
    "EchoTime1": 0.00492,
    "EchoTime2": 0.00738,
    "FlipAngle": 60,
    "ImageOrientationPatientDICOM": [
        0.99931,
        0.0281988,
        -0.0241852,
        -0.0287861,
        0.999291,
        -0.0242854
    ],
    "ImageType": [
        "ORIGINAL",
        "PRIMARY",
        "P",
        "ND"
    ],
    "ImagingFrequency": 123.251,
    "InPlanePhaseEncodingDirectionDICOM": "COL",
    "InstitutionAddress": "Olive_Street_60_Providence_RI_US_02912",
    "InstitutionName": "BROWN_UNIVERSITY_MRF",
    "InstitutionalDepartmentName": "Department",
    "IntendedFor": [
        "ses-01/func/sub-8025_ses-01_task-RDMmotion_run-03_bold.nii.gz",
        "ses-01/func/sub-8025_ses-01_task-RDMcolor_run-02_bold.nii.gz",
        "ses-01/func/sub-8025_ses-01_task-RDMmotion_run-06_bold.nii.gz",
        "ses-01/func/sub-8025_ses-01_task-RDMmotion_run-04_bold.nii.gz",
        "ses-01/func/sub-8025_ses-01_task-RDMmotion_run-01_bold.nii.gz",
        "ses-01/func/sub-8025_ses-01_task-RDMcolor_run-05_bold.nii.gz",
        "ses-01/func/sub-8025_ses-01_task-RDMmotion_run-05_bold.nii.gz",
        "ses-01/func/sub-8025_ses-01_task-RDMmotion_run-02_bold.nii.gz",
        "ses-01/func/sub-8025_ses-01_task-RDMcolor_run-04_bold.nii.gz",
        "ses-01/func/sub-8025_ses-01_task-RDMcolor_run-03_bold.nii.gz",
        "ses-01/func/sub-8025_ses-01_task-RDMcolor_run-06_bold.nii.gz",
        "ses-01/func/sub-8025_ses-01_task-RDMcolor_run-01_bold.nii.gz",
        "ses-01/func/sub-8025_ses-01_task-RDMlocalizer_run-02_bold.nii.gz",
        "ses-01/func/sub-8025_ses-01_task-RDMlocalizer_run-01_bold.nii.gz"
    ],
    "MRAcquisitionType": "2D",
    "MagneticFieldStrength": 3,
    "Manufacturer": "Siemens",
    "ManufacturersModelName": "Prisma_fit",
    "Modality": "MR",
    "MultibandAccelerationFactor": 2,
    "PartialFourier": 1,
    "PatientPosition": "HFS",
    "PercentPhaseFOV": 100,
    "PhaseEncodingDirection": "j-",
    "PhaseEncodingSteps": 88,
    "PhaseResolution": 1,
    "PixelBandwidth": 600,
    "ProcedureStepDescription": "ASHENHAV_1222",
    "ProtocolName": "fmap_acq-greAP",
    "PulseSequenceDetails": "%SiemensSeq%_gre_field_mapping",
    "ReceiveCoilActiveElements": "HC1-7",
    "ReceiveCoilName": "HeadNeck_64",
    "ReconMatrixPE": 88,
    "RepetitionTime": 0.588,
    "SAR": 0.112322,
    "ScanningSequence": "GR",
    "SequenceName": "_fm2d2r",
    "SequenceVariant": "SP",
    "SeriesDescription": "fmap_acq-greAP",
    "SeriesNumber": 22,
    "ShimSetting": [
        1753,
        -9128,
        4445,
        707,
        -67,
        -187,
        31,
        -1
    ],
    "SliceThickness": 2.4,
    "SliceTiming": [
        0.29688,
        0,
        0.3125,
        0.01562,
        0.3125,
        0.03125,
        0.32812,
        0.03125,
        0.34375,
        0.04688,
        0.34375,
        0.04688,
        0.35938,
        0.0625,
        0.35938,
        0.07812,
        0.375,
        0.07812,
        0.39062,
        0.09375,
        0.39062,
        0.10938,
        0.40625,
        0.10938,
        0.42188,
        0.125,
        0.42188,
        0.125,
        0.4375,
        0.14062,
        0.4375,
        0.15625,
        0.45312,
        0.15625,
        0.46875,
        0.17188,
        0.46875,
        0.1875,
        0.48438,
        0.1875,
        0.5,
        0.20312,
        0.5,
        0.20312,
        0.51562,
        0.21875,
        0.53125,
        0.23438,
        0.53125,
        0.23438,
        0.54688,
        0.25,
        0.54688,
        0.26562,
        0.5625,
        0.26562,
        0.57812,
        0.28125,
        0.57812,
        0.29688
    ],
    "SoftwareVersions": "syngo_MR_E11",
    "SpacingBetweenSlices": 2.4,
    "StationName": "AWP67050",
    "TxRefAmp": 219.091,
    "dcmmeta_affine": [
        [
            -2.3960721492767334,
            -0.06902110576629639,
            -0.056359708309173584,
            111.1940689086914
        ],
        [
            -0.0676131397485733,
            2.396026134490967,
            -0.05991554260253906,
            -90.5999526977539
        ],
        [
            -0.05798948183655739,
            0.05822969228029251,
            2.398590087890625,
            -56.66523742675781
        ],
        [
            0.0,
            0.0,
            0.0,
            1.0
        ]
    ],
    "dcmmeta_reorient_transform": [
        [
            0.0,
            -1.0,
            0.0,
            87.0
        ],
        [
            1.0,
            0.0,
            0.0,
            0.0
        ],
        [
            0.0,
            0.0,
            -1.0,
            59.0
        ],
        [
            0.0,
            0.0,
            0.0,
            1.0
        ]
    ],
    "dcmmeta_shape": [
        88,
        88,
        60
    ],
    "dcmmeta_slice_dim": 2,
    "dcmmeta_version": 0.6,
    "global": {
        "const": {
            "AcquisitionMatrix": [
                88,
                0,
                0,
                88
            ],
            "AcquisitionNumber": 1,
            "AngioFlag": "N",
            "BitsAllocated": 16,
            "BitsStored": 12,
            "BodyPartExamined": "BRAIN",
            "Columns": 88,
            "DeidentificationMethodCodeSequence": [
                {
                    "CodeMeaning": "XNAT DicomEdit 6 Script",
                    "CodeValue": "3",
                    "CodingSchemeDesignator": "XNAT",
                    "CodingSchemeVersion": "1.0"
                }
            ],
            "EchoNumbers": 2,
            "EchoTime": 7.38,
            "EchoTrainLength": 0,
            "FlipAngle": 60.0,
            "HighBit": 11,
            "ImageOrientationPatient": [
                0.99930971271027,
                0.02819884425861,
                -0.0241851869002,
                -0.0287860551454,
                0.99929054027955,
                -0.0242853687838
            ],
            "ImageType": [
                "ORIGINAL",
                "PRIMARY",
                "P",
                "ND"
            ],
            "ImagedNucleus": "1H",
            "ImagingFrequency": 123.250742,
            "InPlanePhaseEncodingDirection": "COL",
            "MRAcquisitionType": "2D",
            "MagneticFieldStrength": 3.0,
            "Manufacturer": "SIEMENS",
            "ManufacturerModelName": "Prisma_fit",
            "Modality": "MR",
            "NumberOfAverages": 1.0,
            "NumberOfPhaseEncodingSteps": 88,
            "PercentPhaseFieldOfView": 100.0,
            "PercentSampling": 100.0,
            "PerformedProcedureStepStartTime": "124940.610000",
            "PhotometricInterpretation": "MONOCHROME2",
            "PixelBandwidth": 600.0,
            "PixelRepresentation": 0,
            "PixelSpacing": [
                2.3977272510529,
                2.3977272510529
            ],
            "ProtocolName": "fmap_acq-greAP",
            "RepetitionTime": 588.0,
            "RescaleIntercept": -4096.0,
            "RescaleSlope": 2.0,
            "RescaleType": "US",
            "Rows": 88,
            "SAR": 0.11232227955648,
            "SamplesPerPixel": 1,
            "ScanningSequence": "GR",
            "SequenceName": "*fm2d2r",
            "SequenceVariant": "SP",
            "SeriesDescription": "fmap_acq-greAP",
            "SeriesNumber": 22,
            "SeriesTime": "141935.420000",
            "SliceThickness": 2.4000000953674,
            "SoftwareVersions": "syngo MR E11",
            "SpacingBetweenSlices": 2.4,
            "SpecificCharacterSet": "ISO_IR 100",
            "StudyID": "1",
            "StudyTime": "124940.509000",
            "TransmitCoilName": "Body",
            "VariableFlipAngleFlag": "N",
            "WindowCenterWidthExplanation": "Algo1",
            "dBdt": 0.0
        },
        "slices": {
            "AcquisitionTime": [
                "141751.940000",
                "141751.645000",
                "141751.947500",
                "141751.655000",
                "141751.957500",
                "141751.665000",
                "141751.967500",
                "141751.675000",
                "141751.977500",
                "141751.685000",
                "141751.987500",
                "141751.695000",
                "141751.997500",
                "141751.702500",
                "141752.007500",
                "141751.712500",
                "141752.017500",
                "141751.722500",
                "141752.027500",
                "141751.732500",
                "141752.037500",
                "141751.742500",
                "141752.047500",
                "141751.752500",
                "141752.057500",
                "141751.762500",
                "141752.067500",
                "141751.772500",
                "141752.075000",
                "141751.782500",
                "141752.085000",
                "141751.792500",
                "141752.095000",
                "141751.802500",
                "141752.105000",
                "141751.812500",
                "141752.115000",
                "141751.822500",
                "141752.125000",
                "141751.830000",
                "141752.135000",
                "141751.840000",
                "141752.145000",
                "141751.850000",
                "141752.155000",
                "141751.860000",
                "141752.165000",
                "141751.870000",
                "141752.175000",
                "141751.880000",
                "141752.185000",
                "141751.890000",
                "141752.192500",
                "141751.900000",
                "141752.202500",
                "141751.910000",
                "141752.212500",
                "141751.920000",
                "141752.222500",
                "141751.930000"
            ],
            "ContentTime": [
                "141935.497000",
                "141935.422000",
                "141935.498000",
                "141935.428000",
                "141935.500000",
                "141935.430000",
                "141935.502000",
                "141935.432000",
                "141935.504000",
                "141935.434000",
                "141935.506000",
                "141935.436000",
                "141935.508000",
                "141935.438000",
                "141935.509000",
                "141935.440000",
                "141935.613000",
                "141935.441000",
                "141935.615000",
                "141935.443000",
                "141935.617000",
                "141935.448000",
                "141935.619000",
                "141935.450000",
                "141935.624000",
                "141935.451000",
                "141935.626000",
                "141935.453000",
                "141935.628000",
                "141935.455000",
                "141935.630000",
                "141935.457000",
                "141935.631000",
                "141935.459000",
                "141935.633000",
                "141935.461000",
                "141935.635000",
                "141935.463000",
                "141935.637000",
                "141935.465000",
                "141935.639000",
                "141935.467000",
                "141935.644000",
                "141935.473000",
                "141935.646000",
                "141935.475000",
                "141935.648000",
                "141935.477000",
                "141935.650000",
                "141935.479000",
                "141935.652000",
                "141935.481000",
                "141935.654000",
                "141935.483000",
                "141935.656000",
                "141935.485000",
                "141935.657000",
                "141935.493000",
                "141935.659000",
                "141935.495000"
            ],
            "CsaImage.GSWDDataType": [
                "predicted",
                "predicted",
                "predicted",
                "predicted",
                "predicted",
                "predicted",
                "predicted",
                "predicted",
                "predicted",
                "predicted",
                "measured",
                "predicted",
                "measured",
                "predicted",
                "measured",
                "predicted",
                "measured",
                "predicted",
                "measured",
                "predicted",
                "measured",
                "predicted",
                "measured",
                "predicted",
                "measured",
                "predicted",
                "measured",
                "predicted",
                "measured",
                "predicted",
                "measured",
                "predicted",
                "measured",
                "predicted",
                "measured",
                "predicted",
                "measured",
                "predicted",
                "measured",
                "predicted",
                "measured",
                "predicted",
                "measured",
                "predicted",
                "measured",
                "predicted",
                "measured",
                "predicted",
                "measured",
                "predicted",
                "measured",
                "predicted",
                "measured",
                "predicted",
                "measured",
                "predicted",
                "measured",
                "predicted",
                "measured",
                "predicted"
            ],
            "CsaImage.ICE_Dims": [
                "X_2_1_1_1_1_1_31_1_1_1_1_1939",
                "X_2_1_1_1_1_1_1_1_1_2_1_1939",
                "X_2_1_1_1_1_1_32_1_1_3_1_1939",
                "X_2_1_1_1_1_1_2_1_1_4_1_1939",
                "X_2_1_1_1_1_1_33_1_1_5_1_1939",
                "X_2_1_1_1_1_1_3_1_1_6_1_1939",
                "X_2_1_1_1_1_1_34_1_1_7_1_1939",
                "X_2_1_1_1_1_1_4_1_1_8_1_1939",
                "X_2_1_1_1_1_1_35_1_1_9_1_1939",
                "X_2_1_1_1_1_1_5_1_1_10_1_1939",
                "X_2_1_1_1_1_1_36_1_1_11_1_1939",
                "X_2_1_1_1_1_1_6_1_1_12_1_1939",
                "X_2_1_1_1_1_1_37_1_1_13_1_1939",
                "X_2_1_1_1_1_1_7_1_1_14_1_1939",
                "X_2_1_1_1_1_1_38_1_1_15_1_1939",
                "X_2_1_1_1_1_1_8_1_1_16_1_1939",
                "X_2_1_1_1_1_1_39_1_1_17_1_1939",
                "X_2_1_1_1_1_1_9_1_1_18_1_1939",
                "X_2_1_1_1_1_1_40_1_1_19_1_1939",
                "X_2_1_1_1_1_1_10_1_1_20_1_1939",
                "X_2_1_1_1_1_1_41_1_1_21_1_1939",
                "X_2_1_1_1_1_1_11_1_1_22_1_1939",
                "X_2_1_1_1_1_1_42_1_1_23_1_1939",
                "X_2_1_1_1_1_1_12_1_1_24_1_1939",
                "X_2_1_1_1_1_1_43_1_1_25_1_1939",
                "X_2_1_1_1_1_1_13_1_1_26_1_1939",
                "X_2_1_1_1_1_1_44_1_1_27_1_1939",
                "X_2_1_1_1_1_1_14_1_1_28_1_1939",
                "X_2_1_1_1_1_1_45_1_1_29_1_1939",
                "X_2_1_1_1_1_1_15_1_1_30_1_1939",
                "X_2_1_1_1_1_1_46_1_1_31_1_1939",
                "X_2_1_1_1_1_1_16_1_1_32_1_1939",
                "X_2_1_1_1_1_1_47_1_1_33_1_1939",
                "X_2_1_1_1_1_1_17_1_1_34_1_1939",
                "X_2_1_1_1_1_1_48_1_1_35_1_1939",
                "X_2_1_1_1_1_1_18_1_1_36_1_1939",
                "X_2_1_1_1_1_1_49_1_1_37_1_1939",
                "X_2_1_1_1_1_1_19_1_1_38_1_1939",
                "X_2_1_1_1_1_1_50_1_1_39_1_1939",
                "X_2_1_1_1_1_1_20_1_1_40_1_1939",
                "X_2_1_1_1_1_1_51_1_1_41_1_1939",
                "X_2_1_1_1_1_1_21_1_1_42_1_1939",
                "X_2_1_1_1_1_1_52_1_1_43_1_1939",
                "X_2_1_1_1_1_1_22_1_1_44_1_1939",
                "X_2_1_1_1_1_1_53_1_1_45_1_1939",
                "X_2_1_1_1_1_1_23_1_1_46_1_1939",
                "X_2_1_1_1_1_1_54_1_1_47_1_1939",
                "X_2_1_1_1_1_1_24_1_1_48_1_1939",
                "X_2_1_1_1_1_1_55_1_1_49_1_1939",
                "X_2_1_1_1_1_1_25_1_1_50_1_1939",
                "X_2_1_1_1_1_1_56_1_1_51_1_1939",
                "X_2_1_1_1_1_1_26_1_1_52_1_1939",
                "X_2_1_1_1_1_1_57_1_1_53_1_1939",
                "X_2_1_1_1_1_1_27_1_1_54_1_1939",
                "X_2_1_1_1_1_1_58_1_1_55_1_1939",
                "X_2_1_1_1_1_1_28_1_1_56_1_1939",
                "X_2_1_1_1_1_1_59_1_1_57_1_1939",
                "X_2_1_1_1_1_1_29_1_1_58_1_1939",
                "X_2_1_1_1_1_1_60_1_1_59_1_1939",
                "X_2_1_1_1_1_1_30_1_1_60_1_1939"
            ],
            "CsaImage.ProtocolSliceNumber": [
                0,
                1,
                2,
                3,
                4,
                5,
                6,
                7,
                8,
                9,
                10,
                11,
                12,
                13,
                14,
                15,
                16,
                17,
                18,
                19,
                20,
                21,
                22,
                23,
                24,
                25,
                26,
                27,
                28,
                29,
                30,
                31,
                32,
                33,
                34,
                35,
                36,
                37,
                38,
                39,
                40,
                41,
                42,
                43,
                44,
                45,
                46,
                47,
                48,
                49,
                50,
                51,
                52,
                53,
                54,
                55,
                56,
                57,
                58,
                59
            ],
            "CsaImage.RFSWDDataType": [
                "predicted",
                "predicted",
                "predicted",
                "predicted",
                "predicted",
                "predicted",
                "measured",
                "predicted",
                "measured",
                "predicted",
                "measured",
                "predicted",
                "measured",
                "predicted",
                "measured",
                "predicted",
                "measured",
                "predicted",
                "measured",
                "predicted",
                "measured",
                "predicted",
                "measured",
                "predicted",
                "measured",
                "predicted",
                "measured",
                "predicted",
                "measured",
                "predicted",
                "measured",
                "predicted",
                "measured",
                "predicted",
                "measured",
                "predicted",
                "measured",
                "predicted",
                "measured",
                "predicted",
                "measured",
                "predicted",
                "measured",
                "predicted",
                "measured",
                "predicted",
                "measured",
                "predicted",
                "measured",
                "predicted",
                "measured",
                "predicted",
                "measured",
                "predicted",
                "measured",
                "predicted",
                "measured",
                "predicted",
                "measured",
                "predicted"
            ],
            "CsaImage.SliceMeasurementDuration": [
                102310.0,
                102312.5,
                102312.5,
                102312.5,
                102312.5,
                102312.5,
                102312.5,
                102312.5,
                102312.5,
                102310.0,
                102312.5,
                102310.0,
                102312.5,
                102312.5,
                102312.5,
                102312.5,
                102312.5,
                102312.5,
                102312.5,
                102312.5,
                102312.5,
                102312.5,
                102310.0,
                102312.5,
                102310.0,
                102312.5,
                102310.0,
                102312.5,
                102312.5,
                102312.5,
                102312.5,
                102312.5,
                102312.5,
                102310.0,
                102312.5,
                102310.0,
                102312.5,
                102310.0,
                102312.5,
                102312.5,
                102312.5,
                102312.5,
                102312.5,
                102312.5,
                102312.5,
                102312.5,
                102312.5,
                102312.5,
                102310.0,
                102312.5,
                102310.0,
                102312.5,
                102312.5,
                102312.5,
                102312.5,
                102312.5,
                102312.5,
                102312.5,
                102312.5,
                102310.0
            ],
            "CsaImage.SlicePosition_PCS": [
                [
                    -105.18923067,
                    -117.85432125,
                    -51.59924705
                ],
                [
                    -105.1328709,
                    -117.79440571,
                    -49.20065696
                ],
                [
                    -105.07651113,
                    -117.73449017,
                    -46.80206687
                ],
                [
                    -105.02015136,
                    -117.67457462,
                    -44.40347678
                ],
                [
                    -104.96379183,
                    -117.61465908,
                    -42.00488669
                ],
                [
                    -104.90743207,
                    -117.55474354,
                    -39.60629661
                ],
                [
                    -104.8510723,
                    -117.49482799,
                    -37.20770652
                ],
                [
                    -104.79471253,
                    -117.43491245,
                    -34.80911643
                ],
                [
                    -104.738353,
                    -117.37499691,
                    -32.41052634
                ],
                [
                    -104.68199323,
                    -117.31508137,
                    -30.01193626
                ],
                [
                    -104.62563346,
                    -117.25516582,
                    -27.61334617
                ],
                [
                    -104.5692737,
                    -117.19525028,
                    -25.21475799
                ],
                [
                    -104.51291417,
                    -117.13533474,
                    -22.8161679
                ],
                [
                    -104.4565544,
                    -117.07542015,
                    -20.41757781
                ],
                [
                    -104.40019463,
                    -117.01550461,
                    -18.01898772
                ],
                [
                    -104.34383498,
                    -116.95558907,
                    -15.62039764
                ],
                [
                    -104.28747533,
                    -116.89567352,
                    -13.22180755
                ],
                [
                    -104.23111557,
                    -116.83575798,
                    -10.82321746
                ],
                [
                    -104.17475592,
                    -116.77584244,
                    -8.42462737
                ],
                [
                    -104.11839615,
                    -116.71592689,
                    -6.02603824
                ],
                [
                    -104.0620365,
                    -116.65601135,
                    -3.62744815
                ],
                [
                    -104.00567673,
                    -116.59609581,
                    -1.22885806
                ],
                [
                    -103.94931708,
                    -116.53618027,
                    1.16973203
                ],
                [
                    -103.89295732,
                    -116.47626472,
                    3.56832199
                ],
                [
                    -103.83659767,
                    -116.41634918,
                    5.96691196
                ],
                [
                    -103.7802379,
                    -116.35643364,
                    8.36550181
                ],
                [
                    -103.72387825,
                    -116.2965181,
                    10.7640919
                ],
                [
                    -103.66751848,
                    -116.23660255,
                    13.16268151
                ],
                [
                    -103.61115883,
                    -116.17668701,
                    15.5612716
                ],
                [
                    -103.55479919,
                    -116.11677147,
                    17.95986169
                ],
                [
                    -103.49843942,
                    -116.05685593,
                    20.35845178
                ],
                [
                    -103.44207977,
                    -115.99694038,
                    22.75704186
                ],
                [
                    -103.38572,
                    -115.93702484,
                    25.15563195
                ],
                [
                    -103.32936029,
                    -115.8771093,
                    27.55422204
                ],
                [
                    -103.27300058,
                    -115.81719376,
                    29.95281213
                ],
                [
                    -103.21664088,
                    -115.75727821,
                    32.35140221
                ],
                [
                    -103.16028123,
                    -115.69736267,
                    34.7499904
                ],
                [
                    -103.10392152,
                    -115.63744713,
                    37.14858239
                ],
                [
                    -103.04756181,
                    -115.57753159,
                    39.54717248
                ],
                [
                    -102.9912021,
                    -115.51761604,
                    41.94576257
                ],
                [
                    -102.93484239,
                    -115.4577005,
                    44.34435265
                ],
                [
                    -102.87848269,
                    -115.39778496,
                    46.74294274
                ],
                [
                    -102.82212298,
                    -115.33786941,
                    49.14152902
                ],
                [
                    -102.76576327,
                    -115.27795387,
                    51.5401191
                ],
                [
                    -102.70940356,
                    -115.21803833,
                    53.93870919
                ],
                [
                    -102.65304385,
                    -115.15812279,
                    56.33729928
                ],
                [
                    -102.59668414,
                    -115.09820724,
                    58.73588937
                ],
                [
                    -102.54032445,
                    -115.0382917,
                    61.13447945
                ],
                [
                    -102.48396474,
                    -114.97837616,
                    63.53306954
                ],
                [
                    -102.42760504,
                    -114.91846109,
                    65.93165963
                ],
                [
                    -102.37124533,
                    -114.85854555,
                    68.33024972
                ],
                [
                    -102.31488563,
                    -114.79863001,
                    70.72883981
                ],
                [
                    -102.25852592,
                    -114.73871447,
                    73.12742989
                ],
                [
                    -102.20216622,
                    -114.67879892,
                    75.52601998
                ],
                [
                    -102.14580651,
                    -114.61888338,
                    77.92461007
                ],
                [
                    -102.0894468,
                    -114.55896784,
                    80.32320016
                ],
                [
                    -102.03308709,
                    -114.4990523,
                    82.72179025
                ],
                [
                    -101.97672741,
                    -114.43913675,
                    85.12038033
                ],
                [
                    -101.9203677,
                    -114.37922121,
                    87.51897042
                ],
