{
    "AcquisitionMatrixPE": 88,
    "AcquisitionNumber": 1,
    "AcquisitionTime": "13:04:43.167500",
    "BaseResolution": 88,
    "BodyPartExamined": "BRAIN",
    "ConsistencyInfo": "N4_VE11C_LATEST_20160120",
    "ConversionSoftware": "dcm2niix",
    "ConversionSoftwareVersion": "v1.0.20190902",
    "DeviceSerialNumber": "67050",
    "DwellTime": 9.5e-06,
    "EchoNumber": 2,
    "EchoTime": 0.00738,
    "EchoTime1": 0.00492,
    "EchoTime2": 0.00738,
    "FlipAngle": 60,
    "ImageOrientationPatientDICOM": [
        0.999397,
        0.0218734,
        0.0269561,
        -0.01727,
        0.986882,
        -0.160516
    ],
    "ImageType": [
        "ORIGINAL",
        "PRIMARY",
        "P",
        "ND"
    ],
    "ImagingFrequency": 123.251,
    "InPlanePhaseEncodingDirectionDICOM": "COL",
    "InstitutionAddress": "Olive_Street_60_Providence_RI_US_02912",
    "InstitutionName": "BROWN_UNIVERSITY_MRF",
    "InstitutionalDepartmentName": "Department",
    "IntendedFor": [
        "ses-01/func/sub-8012_ses-01_task-RDMcolor_run-05_bold.nii.gz",
        "ses-01/func/sub-8012_ses-01_task-RDMmotion_run-06_bold.nii.gz",
        "ses-01/func/sub-8012_ses-01_task-RDMlocalizer_run-01_bold.nii.gz",
        "ses-01/func/sub-8012_ses-01_task-RDMlocalizer_run-02_bold.nii.gz",
        "ses-01/func/sub-8012_ses-01_task-RDMmotion_run-03_bold.nii.gz",
        "ses-01/func/sub-8012_ses-01_task-RDMcolor_run-03_bold.nii.gz",
        "ses-01/func/sub-8012_ses-01_task-RDMmotion_run-02_bold.nii.gz",
        "ses-01/func/sub-8012_ses-01_task-RDMcolor_run-04_bold.nii.gz",
        "ses-01/func/sub-8012_ses-01_task-RDMmotion_run-05_bold.nii.gz",
        "ses-01/func/sub-8012_ses-01_task-RDMmotion_run-01_bold.nii.gz",
        "ses-01/func/sub-8012_ses-01_task-RDMcolor_run-02_bold.nii.gz",
        "ses-01/func/sub-8012_ses-01_task-RDMcolor_run-06_bold.nii.gz",
        "ses-01/func/sub-8012_ses-01_task-RDMcolor_run-01_bold.nii.gz",
        "ses-01/func/sub-8012_ses-01_task-RDMmotion_run-04_bold.nii.gz"
    ],
    "MRAcquisitionType": "2D",
    "MagneticFieldStrength": 3,
    "Manufacturer": "Siemens",
    "ManufacturersModelName": "Prisma_fit",
    "Modality": "MR",
    "PartialFourier": 1,
    "PatientPosition": "HFS",
    "PercentPhaseFOV": 100,
    "PhaseEncodingDirection": "j-",
    "PhaseEncodingSteps": 88,
    "PhaseResolution": 1,
    "PixelBandwidth": 600,
    "ProcedureStepDescription": "ASHENHAV_1222",
    "ProtocolName": "fmap_acq-greAP",
    "PulseSequenceDetails": "%SiemensSeq%_gre_field_mapping",
    "ReceiveCoilActiveElements": "HC1-7",
    "ReceiveCoilName": "HeadNeck_64",
    "ReconMatrixPE": 88,
    "RepetitionTime": 0.588,
    "SAR": 0.118617,
    "ScanningSequence": "GR",
    "SequenceName": "_fm2d2r",
    "SequenceVariant": "SP",
    "SeriesDescription": "fmap_acq-greAP",
    "SeriesNumber": 22,
    "ShimSetting": [
        1767,
        -9057,
        4450,
        426,
        -56,
        -141,
        -82,
        20
    ],
    "SliceThickness": 2.4,
    "SliceTiming": [
        0.28906,
        0,
        0.30469,
        0.00781,
        0.3125,
        0.01562,
        0.32031,
        0.03125,
        0.33594,
        0.03906,
        0.34375,
        0.04688,
        0.35156,
        0.05469,
        0.35938,
        0.07031,
        0.36719,
        0.07812,
        0.38281,
        0.08594,
        0.39062,
        0.09375,
        0.39844,
        0.10156,
        0.40625,
        0.11719,
        0.42188,
        0.125,
        0.42969,
        0.13281,
        0.4375,
        0.14844,
        0.45312,
        0.15625,
        0.46094,
        0.16406,
        0.46875,
        0.17188,
        0.47656,
        0.1875,
        0.48438,
        0.19531,
        0.5,
        0.20312,
        0.50781,
        0.21094,
        0.51562,
        0.21875,
        0.53125,
        0.23438,
        0.53906,
        0.24219,
        0.54688,
        0.25,
        0.55469,
        0.26562,
        0.57031,
        0.27344,
        0.57812,
        0.28125
    ],
    "SoftwareVersions": "syngo_MR_E11",
    "SpacingBetweenSlices": 2.4,
    "StationName": "AWP67050",
    "TxRefAmp": 218.178,
    "dcmmeta_affine": [
        [
            -2.396282196044922,
            -0.04140875115990639,
            0.07227230072021484,
            111.23785400390625
        ],
        [
            -0.052446503192186356,
            2.366274118423462,
            -0.38389015197753906,
            -85.96453857421875
        ],
        [
            0.06463337689638138,
            0.3848746716976166,
            2.3679962158203125,
            -72.75829315185547
        ],
        [
            0.0,
            0.0,
            0.0,
            1.0
        ]
    ],
    "dcmmeta_reorient_transform": [
        [
            0.0,
            -1.0,
            0.0,
            87.0
        ],
        [
            1.0,
            0.0,
            0.0,
            0.0
        ],
        [
            0.0,
            0.0,
            -1.0,
            59.0
        ],
        [
            0.0,
            0.0,
            0.0,
            1.0
        ]
    ],
    "dcmmeta_shape": [
        88,
        88,
        60
    ],
    "dcmmeta_slice_dim": 2,
    "dcmmeta_version": 0.6,
    "global": {
        "const": {
            "AcquisitionMatrix": [
                88,
                0,
                0,
                88
            ],
            "AcquisitionNumber": 1,
            "AngioFlag": "N",
            "BitsAllocated": 16,
            "BitsStored": 12,
            "BodyPartExamined": "BRAIN",
            "Columns": 88,
            "DeidentificationMethodCodeSequence": [
                {
                    "CodeMeaning": "XNAT DicomEdit 6 Script",
                    "CodeValue": "3",
                    "CodingSchemeDesignator": "XNAT",
                    "CodingSchemeVersion": "1.0"
                }
            ],
            "EchoNumbers": 2,
            "EchoTime": 7.38,
            "EchoTrainLength": 0,
            "FlipAngle": 60.0,
            "HighBit": 11,
            "ImageOrientationPatient": [
                0.99939727939297,
                0.02187342270366,
                0.02695609988773,
                -0.0172700002676,
                0.98688206869124,
                -0.1605164464672
            ],
            "ImageType": [
                "ORIGINAL",
                "PRIMARY",
                "P",
                "ND"
            ],
            "ImagedNucleus": "1H",
            "ImagingFrequency": 123.250526,
            "InPlanePhaseEncodingDirection": "COL",
            "MRAcquisitionType": "2D",
            "MagneticFieldStrength": 3.0,
            "Manufacturer": "SIEMENS",
            "ManufacturerModelName": "Prisma_fit",
            "Modality": "MR",
            "NumberOfAverages": 1.0,
            "NumberOfPhaseEncodingSteps": 88,
            "PercentPhaseFieldOfView": 100.0,
            "PercentSampling": 100.0,
            "PerformedProcedureStepStartTime": "112439.776000",
            "PhotometricInterpretation": "MONOCHROME2",
            "PixelBandwidth": 600.0,
            "PixelRepresentation": 0,
            "PixelSpacing": [
                2.3977272510529,
                2.3977272510529
            ],
            "ProtocolName": "fmap_acq-greAP",
            "RepetitionTime": 588.0,
            "RescaleIntercept": -4096.0,
            "RescaleSlope": 2.0,
            "RescaleType": "US",
            "Rows": 88,
            "SAR": 0.1186167215629,
            "SamplesPerPixel": 1,
            "ScanningSequence": "GR",
            "SequenceName": "*fm2d2r",
            "SequenceVariant": "SP",
            "SeriesDescription": "fmap_acq-greAP",
            "SeriesNumber": 22,
            "SeriesTime": "130626.788000",
            "SliceThickness": 2.4000000953674,
            "SoftwareVersions": "syngo MR E11",
            "SpacingBetweenSlices": 2.4,
            "SpecificCharacterSet": "ISO_IR 100",
            "StudyID": "1",
            "StudyTime": "112439.701000",
            "TransmitCoilName": "Body",
            "VariableFlipAngleFlag": "N",
            "WindowCenterWidthExplanation": "Algo1",
            "dBdt": 0.0
        },
        "slices": {
            "AcquisitionTime": [
                "130443.167500",
                "130442.872500",
                "130443.177500",
                "130442.882500",
                "130443.187500",
                "130442.892500",
                "130443.197500",
                "130442.902500",
                "130443.207500",
                "130442.912500",
                "130443.215000",
                "130442.922500",
                "130443.225000",
                "130442.932500",
                "130443.235000",
                "130442.942500",
                "130443.245000",
                "130442.952500",
                "130443.255000",
                "130442.962500",
                "130443.265000",
                "130442.970000",
                "130443.275000",
                "130442.980000",
                "130443.285000",
                "130442.990000",
                "130443.295000",
                "130443.000000",
                "130443.305000",
                "130443.010000",
                "130443.315000",
                "130443.020000",
                "130443.325000",
                "130443.030000",
                "130443.332500",
                "130443.040000",
                "130443.342500",
                "130443.050000",
                "130443.352500",
                "130443.060000",
                "130443.362500",
                "130443.070000",
                "130443.372500",
                "130443.080000",
                "130443.382500",
                "130443.087500",
                "130443.392500",
                "130443.097500",
                "130443.402500",
                "130443.107500",
                "130443.412500",
                "130443.117500",
                "130443.422500",
                "130443.127500",
                "130443.432500",
                "130443.137500",
                "130443.442500",
                "130443.147500",
                "130443.452500",
                "130443.157500"
            ],
            "ContentTime": [
                "130626.851000",
                "130626.794000",
                "130626.853000",
                "130626.796000",
                "130626.855000",
                "130626.798000",
                "130626.857000",
                "130626.800000",
                "130626.859000",
                "130626.802000",
                "130626.861000",
                "130626.804000",
                "130626.863000",
                "130626.806000",
                "130626.865000",
                "130626.808000",
                "130626.867000",
                "130626.810000",
                "130626.868000",
                "130626.812000",
                "130626.870000",
                "130626.813000",
                "130626.872000",
                "130626.815000",
                "130626.874000",
                "130626.817000",
                "130626.876000",
                "130626.819000",
                "130626.878000",
                "130626.821000",
                "130626.880000",
                "130626.823000",
                "130626.882000",
                "130626.825000",
                "130626.894000",
                "130626.827000",
                "130626.897000",
                "130626.829000",
                "130626.898000",
                "130626.831000",
                "130626.900000",
                "130626.833000",
                "130626.902000",
                "130626.834000",
                "130626.904000",
                "130626.836000",
                "130626.906000",
                "130626.838000",
                "130626.908000",
                "130626.840000",
                "130626.910000",
                "130626.842000",
                "130626.920000",
                "130626.844000",
                "130626.921000",
                "130626.846000",
                "130626.923000",
                "130626.848000",
                "130626.925000",
                "130626.850000"
            ],
            "CsaImage.GSWDDataType": [
                "predicted",
                "predicted",
                "predicted",
                "predicted",
                "predicted",
                "predicted",
                "predicted",
                "predicted",
                "predicted",
                "predicted",
                "measured",
                "predicted",
                "measured",
                "predicted",
                "measured",
                "predicted",
                "measured",
                "predicted",
                "measured",
                "predicted",
                "measured",
                "predicted",
                "measured",
                "predicted",
                "measured",
                "predicted",
                "measured",
                "predicted",
                "measured",
                "predicted",
                "measured",
                "predicted",
                "measured",
                "predicted",
                "measured",
                "predicted",
                "measured",
                "predicted",
                "measured",
                "predicted",
                "measured",
                "predicted",
                "measured",
                "predicted",
                "measured",
                "predicted",
                "measured",
                "predicted",
                "measured",
                "predicted",
                "measured",
                "predicted",
                "measured",
                "predicted",
                "measured",
                "predicted",
                "measured",
                "predicted",
                "measured",
                "predicted"
            ],
            "CsaImage.ICE_Dims": [
                "X_2_1_1_1_1_1_31_1_1_1_1_636",
                "X_2_1_1_1_1_1_1_1_1_2_1_636",
                "X_2_1_1_1_1_1_32_1_1_3_1_636",
                "X_2_1_1_1_1_1_2_1_1_4_1_636",
                "X_2_1_1_1_1_1_33_1_1_5_1_636",
                "X_2_1_1_1_1_1_3_1_1_6_1_636",
                "X_2_1_1_1_1_1_34_1_1_7_1_636",
                "X_2_1_1_1_1_1_4_1_1_8_1_636",
                "X_2_1_1_1_1_1_35_1_1_9_1_636",
                "X_2_1_1_1_1_1_5_1_1_10_1_636",
                "X_2_1_1_1_1_1_36_1_1_11_1_636",
                "X_2_1_1_1_1_1_6_1_1_12_1_636",
                "X_2_1_1_1_1_1_37_1_1_13_1_636",
                "X_2_1_1_1_1_1_7_1_1_14_1_636",
                "X_2_1_1_1_1_1_38_1_1_15_1_636",
                "X_2_1_1_1_1_1_8_1_1_16_1_636",
                "X_2_1_1_1_1_1_39_1_1_17_1_636",
                "X_2_1_1_1_1_1_9_1_1_18_1_636",
                "X_2_1_1_1_1_1_40_1_1_19_1_636",
                "X_2_1_1_1_1_1_10_1_1_20_1_636",
                "X_2_1_1_1_1_1_41_1_1_21_1_636",
                "X_2_1_1_1_1_1_11_1_1_22_1_636",
                "X_2_1_1_1_1_1_42_1_1_23_1_636",
                "X_2_1_1_1_1_1_12_1_1_24_1_636",
                "X_2_1_1_1_1_1_43_1_1_25_1_636",
                "X_2_1_1_1_1_1_13_1_1_26_1_636",
                "X_2_1_1_1_1_1_44_1_1_27_1_636",
                "X_2_1_1_1_1_1_14_1_1_28_1_636",
                "X_2_1_1_1_1_1_45_1_1_29_1_636",
                "X_2_1_1_1_1_1_15_1_1_30_1_636",
                "X_2_1_1_1_1_1_46_1_1_31_1_636",
                "X_2_1_1_1_1_1_16_1_1_32_1_636",
                "X_2_1_1_1_1_1_47_1_1_33_1_636",
                "X_2_1_1_1_1_1_17_1_1_34_1_636",
                "X_2_1_1_1_1_1_48_1_1_35_1_636",
                "X_2_1_1_1_1_1_18_1_1_36_1_636",
                "X_2_1_1_1_1_1_49_1_1_37_1_636",
                "X_2_1_1_1_1_1_19_1_1_38_1_636",
                "X_2_1_1_1_1_1_50_1_1_39_1_636",
                "X_2_1_1_1_1_1_20_1_1_40_1_636",
                "X_2_1_1_1_1_1_51_1_1_41_1_636",
                "X_2_1_1_1_1_1_21_1_1_42_1_636",
                "X_2_1_1_1_1_1_52_1_1_43_1_636",
                "X_2_1_1_1_1_1_22_1_1_44_1_636",
                "X_2_1_1_1_1_1_53_1_1_45_1_636",
                "X_2_1_1_1_1_1_23_1_1_46_1_636",
                "X_2_1_1_1_1_1_54_1_1_47_1_636",
                "X_2_1_1_1_1_1_24_1_1_48_1_636",
                "X_2_1_1_1_1_1_55_1_1_49_1_636",
                "X_2_1_1_1_1_1_25_1_1_50_1_636",
                "X_2_1_1_1_1_1_56_1_1_51_1_636",
                "X_2_1_1_1_1_1_26_1_1_52_1_636",
                "X_2_1_1_1_1_1_57_1_1_53_1_636",
                "X_2_1_1_1_1_1_27_1_1_54_1_636",
                "X_2_1_1_1_1_1_58_1_1_55_1_636",
                "X_2_1_1_1_1_1_28_1_1_56_1_636",
                "X_2_1_1_1_1_1_59_1_1_57_1_636",
                "X_2_1_1_1_1_1_29_1_1_58_1_636",
                "X_2_1_1_1_1_1_60_1_1_59_1_636",
                "X_2_1_1_1_1_1_30_1_1_60_1_636"
            ],
            "CsaImage.ProtocolSliceNumber": [
                0,
                1,
                2,
                3,
                4,
                5,
                6,
                7,
                8,
                9,
                10,
                11,
                12,
                13,
                14,
                15,
                16,
                17,
                18,
                19,
                20,
                21,
                22,
                23,
                24,
                25,
                26,
                27,
                28,
                29,
                30,
                31,
                32,
                33,
                34,
                35,
                36,
                37,
                38,
                39,
                40,
                41,
                42,
                43,
                44,
                45,
                46,
                47,
                48,
                49,
                50,
                51,
                52,
                53,
                54,
                55,
                56,
                57,
                58,
                59
            ],
            "CsaImage.RFSWDDataType": [
                "predicted",
                "predicted",
                "predicted",
                "predicted",
                "predicted",
                "predicted",
                "measured",
                "predicted",
                "measured",
                "predicted",
                "measured",
                "predicted",
                "measured",
                "predicted",
                "measured",
                "predicted",
                "measured",
                "predicted",
                "measured",
                "predicted",
                "measured",
                "predicted",
                "measured",
                "predicted",
                "measured",
                "predicted",
                "measured",
                "predicted",
                "measured",
                "predicted",
                "measured",
                "predicted",
                "measured",
                "predicted",
                "measured",
                "predicted",
                "measured",
                "predicted",
                "measured",
                "predicted",
                "measured",
                "predicted",
                "measured",
                "predicted",
                "measured",
                "predicted",
                "measured",
                "predicted",
                "measured",
                "predicted",
                "measured",
                "predicted",
                "measured",
                "predicted",
                "measured",
                "predicted",
                "measured",
                "predicted",
                "measured",
                "predicted"
            ],
            "CsaImage.SliceMeasurementDuration": [
                102312.5,
                102312.5,
                102312.5,
                102312.5,
                102310.0,
                102312.5,
                102310.0,
                102312.5,
                102310.0,
                102312.5,
                102312.5,
                102312.5,
                102312.5,
                102312.5,
                102312.5,
                102310.0,
                102312.5,
                102310.0,
                102312.5,
                102310.0,
                102312.5,
                102312.5,
                102312.5,
                102312.5,
                102312.5,
                102312.5,
                102312.5,
                102312.5,
                102312.5,
                102312.5,
                102310.0,
                102312.5,
                102310.0,
                102312.5,
                102312.5,
                102312.5,
                102312.5,
                102312.5,
                102312.5,
                102312.5,
                102312.5,
                102310.0,
                102312.5,
                102310.0,
                102312.5,
                102312.5,
                102312.5,
                102312.5,
                102312.5,
                102312.5,
                102312.5,
                102312.5,
                102312.5,
                102312.5,
                102310.0,
                102312.5,
                102310.0,
                102312.5,
                102310.0,
                102312.5
            ],
            "CsaImage.SlicePosition_PCS": [
                [
                    -107.63528291,
                    -119.90129489,
                    -39.27418306
                ],
                [
                    -107.70755522,
                    -119.51740474,
                    -36.90618685
                ],
                [
                    -107.77982799,
                    -119.13351554,
                    -34.53819063
                ],
                [
                    -107.85210029,
                    -118.74962539,
                    -32.17019442
                ],
                [
                    -107.92437307,
                    -118.36573524,
                    -29.8021982
                ],
                [
                    -107.99664537,
                    -117.98184509,
                    -27.4342058
                ],
                [
                    -108.06891767,
                    -117.59795494,
                    -25.06620958
                ],
                [
                    -108.14119045,
                    -117.21406478,
                    -22.69821337
                ],
                [
                    -108.21346275,
                    -116.83017463,
                    -20.33021715
                ],
                [
                    -108.28573553,
                    -116.44628543,
                    -17.96222094
                ],
                [
                    -108.35800783,
                    -116.06239528,
                    -15.59422472
                ],
                [
                    -108.43028061,
                    -115.67850513,
                    -13.2262285
                ],
                [
                    -108.50255291,
                    -115.29461498,
                    -10.85823229
                ],
                [
                    -108.57482521,
                    -114.91072483,
                    -8.49023607
                ],
                [
                    -108.64709799,
                    -114.52683467,
                    -6.12223986
                ],
                [
                    -108.71937029,
                    -114.142945,
                    -3.75424364
                ],
                [
                    -108.79164306,
                    -113.75905485,
                    -1.38624742
                ],
                [
                    -108.86391536,
                    -113.37516517,
                    0.98174784
                ],
                [
                    -108.93618767,
                    -112.99127502,
                    3.34974405
                ],
                [
                    -109.00846044,
                    -112.60738487,
                    5.71774027
                ],
                [
                    -109.08073274,
                    -112.22349472,
                    8.08573649
                ],
                [
                    -109.15300552,
                    -111.83960504,
                    10.45373222
                ],
                [
                    -109.22527782,
                    -111.45571489,
                    12.82172832
                ],
                [
                    -109.2975506,
                    -111.07182474,
                    15.1897243
                ],
                [
                    -109.3698229,
                    -110.68793506,
                    17.55772039
                ],
                [
                    -109.4420952,
                    -110.30404491,
                    19.92571661
                ],
                [
                    -109.51436798,
                    -109.920155,
                    22.29371283
                ],
                [
                    -109.58664028,
                    -109.53626484,
                    24.66170809
                ],
                [
                    -109.65891306,
                    -109.15237493,
                    27.0297043
                ],
                [
                    -109.73118536,
                    -108.76848478,
                    29.39770052
                ],
                [
                    -109.80345766,
                    -108.38459487,
                    31.76569578
                ],
                [
                    -109.87573044,
                    -108.00070483,
                    34.133692
                ],
                [
                    -109.94800274,
                    -107.6168148,
                    36.50168821
                ],
                [
                    -110.02027551,
                    -107.23292483,
                    38.86968443
                ],
                [
                    -110.09254781,
                    -106.84903479,
                    41.23768065
                ],
                [
                    -110.16482059,
                    -106.46514479,
                    43.60567686
                ],
                [
                    -110.23709289,
                    -106.08125479,
                    45.97367308
                ],
                [
                    -110.30936519,
                    -105.69736476,
                    48.34166929
                ],
                [
                    -110.38163797,
                    -105.31347472,
                    50.70966551
                ],
                [
                    -110.45391027,
                    -104.92958469,
                    53.07766172
                ],
                [
                    -110.52618305,
                    -104.54569478,
                    55.44565794
                ],
                [
                    -110.59845535,
                    -104.16180462,
                    57.81365416
                ],
                [
                    -110.67072765,
                    -103.77791471,
                    60.18165037
                ],
                [
                    -110.74300043,
                    -103.3940248,
                    62.54964659
                ],
                [
                    -110.81527273,
                    -103.01013465,
                    64.91763899
                ],
                [
                    -110.88754551,
                    -102.62624473,
                    67.28563521
                ],
                [
                    -110.95981781,
                    -102.24235458,
                    69.65363142
                ],
                [
                    -111.03209059,
                    -101.85846443,
                    72.02162764
                ],
                [
                    -111.10436289,
                    -101.47457475,
                    74.38962385
                ],
                [
                    -111.17663519,
                    -101.0906846,
                    76.75762007
                ],
                [
                    -111.24890796,
                    -100.70679445,
                    79.1256201
                ],
                [
                    -111.32118027,
                    -100.32290477,
                    81.49361631
                ],
                [
                    -111.39345304,
                    -99.93901462,
                    83.86161253
                ],
                [
                    -111.46572534,
                    -99.55512447,
                    86.22960112
                ],
                [
                    -111.53799764,
                    -99.17123479,
                    88.59759733
                ],
                [
                    -111.61027042,
                    -98.78734464,
                    90.96559355
                ],
                [
                    -111.6825432,
                    -98.40345497,
                    93.33358976
                ],
                [
                    -111.7548155,
                    -98.01956482,
                    95.70158598
                ],
                [
                    -111.8270878,
                    -97.63567466,
                    98.0695822
                ],
                [
                    -111.8993601,
                    -97.25178451,
