{
    "AcquisitionMatrixPE": 88,
    "AcquisitionNumber": 1,
    "AcquisitionTime": "10:50:17.990000",
    "BaseResolution": 88,
    "BodyPartExamined": "BRAIN",
    "ConsistencyInfo": "N4_VE11C_LATEST_20160120",
    "ConversionSoftware": "dcm2niix",
    "ConversionSoftwareVersion": "v1.0.20190902",
    "DeviceSerialNumber": "67050",
    "DwellTime": 9.5e-06,
    "EchoNumber": 2,
    "EchoTime": 0.00738,
    "EchoTime1": 0.00492,
    "EchoTime2": 0.00738,
    "FlipAngle": 60,
    "ImageOrientationPatientDICOM": [
        0.996547,
        -0.0792897,
        -0.0246345,
        0.0819311,
        0.987174,
        0.137021
    ],
    "ImageType": [
        "ORIGINAL",
        "PRIMARY",
        "P",
        "ND"
    ],
    "ImagingFrequency": 123.251,
    "InPlanePhaseEncodingDirectionDICOM": "COL",
    "InstitutionAddress": "Olive_Street_60_Providence_RI_US_02912",
    "InstitutionName": "BROWN_UNIVERSITY_MRF",
    "InstitutionalDepartmentName": "Department",
    "IntendedFor": [
        "ses-01/func/sub-8004_ses-01_task-RDMmotion_run-05_bold.nii.gz",
        "ses-01/func/sub-8004_ses-01_task-RDMlocalizer_run-01_bold.nii.gz",
        "ses-01/func/sub-8004_ses-01_task-RDMmotion_run-06_bold.nii.gz",
        "ses-01/func/sub-8004_ses-01_task-RDMcolor_run-03_bold.nii.gz",
        "ses-01/func/sub-8004_ses-01_task-RDMcolor_run-06_bold.nii.gz",
        "ses-01/func/sub-8004_ses-01_task-RDMcolor_run-05_bold.nii.gz",
        "ses-01/func/sub-8004_ses-01_task-RDMmotion_run-01_bold.nii.gz",
        "ses-01/func/sub-8004_ses-01_task-RDMcolor_run-01_bold.nii.gz",
        "ses-01/func/sub-8004_ses-01_task-RDMmotion_run-04_bold.nii.gz",
        "ses-01/func/sub-8004_ses-01_task-RDMcolor_run-02_bold.nii.gz",
        "ses-01/func/sub-8004_ses-01_task-RDMmotion_run-03_bold.nii.gz",
        "ses-01/func/sub-8004_ses-01_task-RDMcolor_run-04_bold.nii.gz",
        "ses-01/func/sub-8004_ses-01_task-RDMmotion_run-02_bold.nii.gz",
        "ses-01/func/sub-8004_ses-01_task-RDMlocalizer_run-02_bold.nii.gz"
    ],
    "MRAcquisitionType": "2D",
    "MagneticFieldStrength": 3,
    "Manufacturer": "Siemens",
    "ManufacturersModelName": "Prisma_fit",
    "Modality": "MR",
    "PartialFourier": 1,
    "PatientPosition": "HFS",
    "PercentPhaseFOV": 100,
    "PhaseEncodingDirection": "j-",
    "PhaseEncodingSteps": 88,
    "PhaseResolution": 1,
    "PixelBandwidth": 600,
    "ProcedureStepDescription": "ASHENHAV_1222",
    "ProtocolName": "fmap_acq-greAP",
    "PulseSequenceDetails": "%SiemensSeq%_gre_field_mapping",
    "ReceiveCoilActiveElements": "HC1-7;NC1",
    "ReceiveCoilName": "HeadNeck_64",
    "ReconMatrixPE": 88,
    "RepetitionTime": 0.588,
    "SAR": 0.101102,
    "ScanningSequence": "GR",
    "SequenceName": "_fm2d2r",
    "SequenceVariant": "SP",
    "SeriesDescription": "fmap_acq-greAP",
    "SeriesNumber": 23,
    "ShimSetting": [
        1740,
        -9175,
        4427,
        559,
        -64,
        -420,
        144,
        77
    ],
    "SliceThickness": 2.4,
    "SliceTiming": [
        0.29688,
        0,
        0.30469,
        0.00781,
        0.3125,
        0.02344,
        0.32812,
        0.03125,
        0.33594,
        0.03906,
        0.34375,
        0.04688,
        0.35156,
        0.0625,
        0.36719,
        0.07031,
        0.375,
        0.07812,
        0.38281,
        0.08594,
        0.39062,
        0.10156,
        0.39844,
        0.10938,
        0.41406,
        0.11719,
        0.42188,
        0.125,
        0.42969,
        0.14062,
        0.44531,
        0.14844,
        0.45312,
        0.15625,
        0.46094,
        0.16406,
        0.46875,
        0.17969,
        0.48438,
        0.1875,
        0.49219,
        0.19531,
        0.5,
        0.21094,
        0.50781,
        0.21875,
        0.52344,
        0.22656,
        0.53125,
        0.23438,
        0.53906,
        0.24219,
        0.54688,
        0.25781,
        0.5625,
        0.26562,
        0.57031,
        0.27344,
        0.57812,
        0.28125
    ],
    "SoftwareVersions": "syngo_MR_E11",
    "SpacingBetweenSlices": 2.4,
    "StationName": "AWP67050",
    "TxRefAmp": 214.526,
    "dcmmeta_affine": [
        [
            -2.389448404312134,
            0.19644832611083984,
            -0.032289981842041016,
            98.03809356689453
        ],
        [
            0.1901150643825531,
            2.366974115371704,
            0.33255958557128906,
            -105.73056030273438
        ],
        [
            -0.059066735208034515,
            -0.3285385072231293,
            2.3766250610351562,
            -44.29299545288086
        ],
        [
            0.0,
            0.0,
            0.0,
            1.0
        ]
    ],
    "dcmmeta_reorient_transform": [
        [
            0.0,
            -1.0,
            0.0,
            87.0
        ],
        [
            1.0,
            0.0,
            0.0,
            0.0
        ],
        [
            0.0,
            0.0,
            -1.0,
            59.0
        ],
        [
            0.0,
            0.0,
            0.0,
            1.0
        ]
    ],
    "dcmmeta_shape": [
        88,
        88,
        60
    ],
    "dcmmeta_slice_dim": 2,
    "dcmmeta_version": 0.6,
    "global": {
        "const": {
            "AcquisitionMatrix": [
                88,
                0,
                0,
                88
            ],
            "AcquisitionNumber": 1,
            "AngioFlag": "N",
            "BitsAllocated": 16,
            "BitsStored": 12,
            "BodyPartExamined": "BRAIN",
            "Columns": 88,
            "DeidentificationMethodCodeSequence": [
                {
                    "CodeMeaning": "XNAT DicomEdit 6 Script",
                    "CodeValue": "3",
                    "CodingSchemeDesignator": "XNAT",
                    "CodingSchemeVersion": "1.0"
                }
            ],
            "EchoNumbers": 2,
            "EchoTime": 7.38,
            "EchoTrainLength": 0,
            "FlipAngle": 60.0,
            "HighBit": 11,
            "ImageOrientationPatient": [
                0.99654718259687,
                -0.0792896957185,
                -0.0246344679489,
                0.08193105740396,
                0.98717404875132,
                0.13702079880293
            ],
            "ImageType": [
                "ORIGINAL",
                "PRIMARY",
                "P",
                "ND"
            ],
            "ImagedNucleus": "1H",
            "ImagingFrequency": 123.250644,
            "InPlanePhaseEncodingDirection": "COL",
            "MRAcquisitionType": "2D",
            "MagneticFieldStrength": 3.0,
            "Manufacturer": "SIEMENS",
            "ManufacturerModelName": "Prisma_fit",
            "Modality": "MR",
            "NumberOfAverages": 1.0,
            "NumberOfPhaseEncodingSteps": 88,
            "PercentPhaseFieldOfView": 100.0,
            "PercentSampling": 100.0,
            "PerformedProcedureStepStartTime": "091550.092000",
            "PhotometricInterpretation": "MONOCHROME2",
            "PixelBandwidth": 600.0,
            "PixelRepresentation": 0,
            "PixelSpacing": [
                2.3977272510529,
                2.3977272510529
            ],
            "ProtocolName": "fmap_acq-greAP",
            "RepetitionTime": 588.0,
            "RescaleIntercept": -4096.0,
            "RescaleSlope": 2.0,
            "RescaleType": "US",
            "Rows": 88,
            "SAR": 0.10110214183969,
            "SamplesPerPixel": 1,
            "ScanningSequence": "GR",
            "SequenceName": "*fm2d2r",
            "SequenceVariant": "SP",
            "SeriesDescription": "fmap_acq-greAP",
            "SeriesNumber": 23,
            "SeriesTime": "105201.704000",
            "SliceThickness": 2.4000000953674,
            "SoftwareVersions": "syngo MR E11",
            "SpacingBetweenSlices": 2.4,
            "SpecificCharacterSet": "ISO_IR 100",
            "StudyID": "1",
            "StudyTime": "091549.905000",
            "TransmitCoilName": "Body",
            "VariableFlipAngleFlag": "N",
            "WindowCenterWidthExplanation": "Algo1",
            "dBdt": 0.0
        },
        "slices": {
            "AcquisitionTime": [
                "105017.990000",
                "105017.695000",
                "105018.000000",
                "105017.705000",
                "105018.010000",
                "105017.715000",
                "105018.020000",
                "105017.725000",
                "105018.030000",
                "105017.735000",
                "105018.040000",
                "105017.745000",
                "105018.050000",
                "105017.755000",
                "105018.060000",
                "105017.765000",
                "105018.067500",
                "105017.775000",
                "105018.077500",
                "105017.785000",
                "105018.087500",
                "105017.795000",
                "105018.097500",
                "105017.805000",
                "105018.107500",
                "105017.815000",
                "105018.117500",
                "105017.822500",
                "105018.127500",
                "105017.832500",
                "105018.137500",
                "105017.842500",
                "105018.147500",
                "105017.852500",
                "105018.157500",
                "105017.862500",
                "105018.167500",
                "105017.872500",
                "105018.177500",
                "105017.882500",
                "105018.185000",
                "105017.892500",
                "105018.195000",
                "105017.902500",
                "105018.205000",
                "105017.912500",
                "105018.215000",
                "105017.922500",
                "105018.225000",
                "105017.932500",
                "105018.235000",
                "105017.940000",
                "105018.245000",
                "105017.950000",
                "105018.255000",
                "105017.960000",
                "105018.265000",
                "105017.970000",
                "105018.275000",
                "105017.980000"
            ],
            "ContentTime": [
                "105201.776000",
                "105201.710000",
                "105201.778000",
                "105201.722000",
                "105201.780000",
                "105201.724000",
                "105201.782000",
                "105201.725000",
                "105201.784000",
                "105201.727000",
                "105201.785000",
                "105201.729000",
                "105201.787000",
                "105201.731000",
                "105201.789000",
                "105201.733000",
                "105201.791000",
                "105201.735000",
                "105201.793000",
                "105201.737000",
                "105201.795000",
                "105201.739000",
                "105201.797000",
                "105201.740000",
                "105201.799000",
                "105201.742000",
                "105201.800000",
                "105201.744000",
                "105201.802000",
                "105201.746000",
                "105201.804000",
                "105201.748000",
                "105201.806000",
                "105201.750000",
                "105201.808000",
                "105201.752000",
                "105201.810000",
                "105201.754000",
                "105201.812000",
                "105201.756000",
                "105201.814000",
                "105201.757000",
                "105201.816000",
                "105201.759000",
                "105201.817000",
                "105201.761000",
                "105201.819000",
                "105201.763000",
                "105201.821000",
                "105201.765000",
                "105201.823000",
                "105201.767000",
                "105201.825000",
                "105201.769000",
                "105201.827000",
                "105201.770000",
                "105201.829000",
                "105201.772000",
                "105201.831000",
                "105201.774000"
            ],
            "CsaImage.GSWDDataType": [
                "predicted",
                "predicted",
                "predicted",
                "predicted",
                "predicted",
                "predicted",
                "predicted",
                "predicted",
                "predicted",
                "predicted",
                "predicted",
                "predicted",
                "predicted",
                "predicted",
                "predicted",
                "predicted",
                "predicted",
                "predicted",
                "predicted",
                "predicted",
                "predicted",
                "predicted",
                "predicted",
                "predicted",
                "predicted",
                "predicted",
                "predicted",
                "predicted",
                "measured",
                "predicted",
                "measured",
                "predicted",
                "measured",
                "predicted",
                "measured",
                "predicted",
                "measured",
                "predicted",
                "measured",
                "predicted",
                "measured",
                "predicted",
                "measured",
                "predicted",
                "measured",
                "predicted",
                "measured",
                "predicted",
                "measured",
                "predicted",
                "measured",
                "predicted",
                "measured",
                "predicted",
                "measured",
                "predicted",
                "measured",
                "predicted",
                "measured",
                "predicted"
            ],
            "CsaImage.ICE_Dims": [
                "X_2_1_1_1_1_1_31_1_1_1_1_235",
                "X_2_1_1_1_1_1_1_1_1_2_1_235",
                "X_2_1_1_1_1_1_32_1_1_3_1_235",
                "X_2_1_1_1_1_1_2_1_1_4_1_235",
                "X_2_1_1_1_1_1_33_1_1_5_1_235",
                "X_2_1_1_1_1_1_3_1_1_6_1_235",
                "X_2_1_1_1_1_1_34_1_1_7_1_235",
                "X_2_1_1_1_1_1_4_1_1_8_1_235",
                "X_2_1_1_1_1_1_35_1_1_9_1_235",
                "X_2_1_1_1_1_1_5_1_1_10_1_235",
                "X_2_1_1_1_1_1_36_1_1_11_1_235",
                "X_2_1_1_1_1_1_6_1_1_12_1_235",
                "X_2_1_1_1_1_1_37_1_1_13_1_235",
                "X_2_1_1_1_1_1_7_1_1_14_1_235",
                "X_2_1_1_1_1_1_38_1_1_15_1_235",
                "X_2_1_1_1_1_1_8_1_1_16_1_235",
                "X_2_1_1_1_1_1_39_1_1_17_1_235",
                "X_2_1_1_1_1_1_9_1_1_18_1_235",
                "X_2_1_1_1_1_1_40_1_1_19_1_235",
                "X_2_1_1_1_1_1_10_1_1_20_1_235",
                "X_2_1_1_1_1_1_41_1_1_21_1_235",
                "X_2_1_1_1_1_1_11_1_1_22_1_235",
                "X_2_1_1_1_1_1_42_1_1_23_1_235",
                "X_2_1_1_1_1_1_12_1_1_24_1_235",
                "X_2_1_1_1_1_1_43_1_1_25_1_235",
                "X_2_1_1_1_1_1_13_1_1_26_1_235",
                "X_2_1_1_1_1_1_44_1_1_27_1_235",
                "X_2_1_1_1_1_1_14_1_1_28_1_235",
                "X_2_1_1_1_1_1_45_1_1_29_1_235",
                "X_2_1_1_1_1_1_15_1_1_30_1_235",
                "X_2_1_1_1_1_1_46_1_1_31_1_235",
                "X_2_1_1_1_1_1_16_1_1_32_1_235",
                "X_2_1_1_1_1_1_47_1_1_33_1_235",
                "X_2_1_1_1_1_1_17_1_1_34_1_235",
                "X_2_1_1_1_1_1_48_1_1_35_1_235",
                "X_2_1_1_1_1_1_18_1_1_36_1_235",
                "X_2_1_1_1_1_1_49_1_1_37_1_235",
                "X_2_1_1_1_1_1_19_1_1_38_1_235",
                "X_2_1_1_1_1_1_50_1_1_39_1_235",
                "X_2_1_1_1_1_1_20_1_1_40_1_235",
                "X_2_1_1_1_1_1_51_1_1_41_1_235",
                "X_2_1_1_1_1_1_21_1_1_42_1_235",
                "X_2_1_1_1_1_1_52_1_1_43_1_235",
                "X_2_1_1_1_1_1_22_1_1_44_1_235",
                "X_2_1_1_1_1_1_53_1_1_45_1_235",
                "X_2_1_1_1_1_1_23_1_1_46_1_235",
                "X_2_1_1_1_1_1_54_1_1_47_1_235",
                "X_2_1_1_1_1_1_24_1_1_48_1_235",
                "X_2_1_1_1_1_1_55_1_1_49_1_235",
                "X_2_1_1_1_1_1_25_1_1_50_1_235",
                "X_2_1_1_1_1_1_56_1_1_51_1_235",
                "X_2_1_1_1_1_1_26_1_1_52_1_235",
                "X_2_1_1_1_1_1_57_1_1_53_1_235",
                "X_2_1_1_1_1_1_27_1_1_54_1_235",
                "X_2_1_1_1_1_1_58_1_1_55_1_235",
                "X_2_1_1_1_1_1_28_1_1_56_1_235",
                "X_2_1_1_1_1_1_59_1_1_57_1_235",
                "X_2_1_1_1_1_1_29_1_1_58_1_235",
                "X_2_1_1_1_1_1_60_1_1_59_1_235",
                "X_2_1_1_1_1_1_30_1_1_60_1_235"
            ],
            "CsaImage.ProtocolSliceNumber": [
                0,
                1,
                2,
                3,
                4,
                5,
                6,
                7,
                8,
                9,
                10,
                11,
                12,
                13,
                14,
                15,
                16,
                17,
                18,
                19,
                20,
                21,
                22,
                23,
                24,
                25,
                26,
                27,
                28,
                29,
                30,
                31,
                32,
                33,
                34,
                35,
                36,
                37,
                38,
                39,
                40,
                41,
                42,
                43,
                44,
                45,
                46,
                47,
                48,
                49,
                50,
                51,
                52,
                53,
                54,
                55,
                56,
                57,
                58,
                59
            ],
            "CsaImage.RFSWDDataType": [
                "predicted",
                "predicted",
                "predicted",
                "predicted",
                "predicted",
                "predicted",
                "predicted",
                "predicted",
                "predicted",
                "predicted",
                "predicted",
                "predicted",
                "predicted",
                "predicted",
                "predicted",
                "predicted",
                "predicted",
                "predicted",
                "predicted",
                "predicted",
                "predicted",
                "predicted",
                "predicted",
                "predicted",
                "measured",
                "predicted",
                "measured",
                "predicted",
                "measured",
                "predicted",
                "measured",
                "predicted",
                "measured",
                "predicted",
                "measured",
                "predicted",
                "measured",
                "predicted",
                "measured",
                "predicted",
                "measured",
                "predicted",
                "measured",
                "predicted",
                "measured",
                "predicted",
                "measured",
                "predicted",
                "measured",
                "predicted",
                "measured",
                "predicted",
                "measured",
                "predicted",
                "measured",
                "predicted",
                "measured",
                "predicted",
                "measured",
                "predicted"
            ],
            "CsaImage.SliceMeasurementDuration": [
                102312.5,
                102312.5,
                102312.5,
                102312.5,
                102312.5,
                102312.5,
                102312.5,
                102312.5,
                102312.5,
                102312.5,
                102310.0,
                102312.5,
                102310.0,
                102312.5,
                102310.0,
                102312.5,
                102312.5,
                102312.5,
                102312.5,
                102312.5,
                102312.5,
                102310.0,
                102312.5,
                102310.0,
                102312.5,
                102310.0,
                102312.5,
                102312.5,
                102312.5,
                102312.5,
                102312.5,
                102312.5,
                102312.5,
                102312.5,
                102312.5,
                102312.5,
                102310.0,
                102312.5,
                102310.0,
                102312.5,
                102312.5,
                102312.5,
                102312.5,
                102312.5,
                102312.5,
                102312.5,
                102312.5,
                102310.0,
                102312.5,
                102310.0,
                102312.5,
                102312.5,
                102312.5,
                102312.5,
                102312.5,
                102312.5,
                102312.5,
                102312.5,
                102312.5,
                102312.5
            ],
            "CsaImage.SlicePosition_PCS": [
                [
                    -115.12909736,
                    -100.19625713,
                    -72.87603728
                ],
                [
                    -115.09680737,
                    -100.52881529,
                    -70.49941222
                ],
                [
                    -115.06451739,
                    -100.86137392,
                    -68.12278334
                ],
                [
                    -115.03222741,
                    -101.19393255,
                    -65.74615447
                ],
                [
                    -114.99993731,
                    -101.5264907,
                    -63.36952559
                ],
                [
                    -114.96764733,
                    -101.85904934,
                    -60.99289671
                ],
                [
                    -114.93535735,
                    -102.19160797,
                    -58.61626784
                ],
                [
                    -114.90306736,
                    -102.52416612,
                    -56.23963896
                ],
                [
                    -114.87077738,
                    -102.85672476,
                    -53.8630139
                ],
                [
                    -114.8384874,
                    -103.18928291,
                    -51.48638503
                ],
                [
                    -114.80619742,
                    -103.52184154,
                    -49.10975615
                ],
                [
                    -114.77390738,
                    -103.8543997,
                    -46.73312727
                ],
                [
                    -114.7416174,
                    -104.18695833,
                    -44.3564984
                ],
                [
                    -114.70932735,
                    -104.51951696,
                    -41.97987143
                ],
                [
                    -114.67703737,
                    -104.85207559,
                    -39.60324255
                ],
                [
                    -114.64474739,
                    -105.18463423,
                    -37.22661368
                ],
                [
                    -114.61245735,
                    -105.5171919,
                    -34.8499848
                ],
                [
                    -114.58016737,
                    -105.84975054,
                    -32.47335783
                ],
                [
                    -114.54787739,
                    -106.18230917,
                    -30.09672896
                ],
                [
                    -114.51558734,
                    -106.5148678,
                    -27.72010104
                ],
                [
                    -114.48329736,
                    -106.84742643,
                    -25.34347216
                ],
                [
                    -114.45100738,
                    -107.17998506,
                    -22.96684424
                ],
                [
                    -114.4187174,
                    -107.51254274,
                    -20.59021536
                ],
                [
                    -114.38642736,
                    -107.84510137,
                    -18.21358744
                ],
                [
                    -114.35413738,
                    -108.17766,
                    -15.83695904
                ],
                [
                    -114.32184739,
                    -108.51021864,
                    -13.46033064
                ],
                [
                    -114.28955735,
                    -108.84277727,
                    -11.08370236
                ],
                [
                    -114.25726737,
                    -109.17533495,
                    -8.70707408
                ],
                [
                    -114.22497739,
                    -109.50789358,
                    -6.33044545
                ],
                [
                    -114.19268738,
                    -109.84045221,
                    -3.95381752
                ],
                [
                    -114.16039736,
                    -110.17301084,
                    -1.57718913
                ],
                [
                    -114.12810738,
                    -110.50556947,
                    0.79943975
                ],
                [
                    -114.09581737,
                    -110.83812715,
                    3.17606767
                ],
                [
                    -114.06352739,
                    -111.17068578,
                    5.55269655
                ],
                [
                    -114.03123738,
                    -111.50324442,
                    7.92932352
                ],
                [
                    -113.99894738,
                    -111.83580305,
                    10.30595239
                ],
                [
                    -113.96665737,
                    -112.16836073,
                    12.68258127
                ],
                [
                    -113.93436737,
                    -112.50092031,
                    15.05921014
                ],
                [
                    -113.90207738,
                    -112.83347799,
                    17.43583711
                ],
                [
                    -113.86978738,
                    -113.16603758,
                    19.81246599
                ],
                [
                    -113.83749738,
                    -113.49859525,
                    22.18909486
                ],
                [
                    -113.80520738,
                    -113.83115293,
                    24.56572374
                ],
                [
                    -113.77291738,
                    -114.16371252,
                    26.94235261
                ],
                [
                    -113.74062738,
                    -114.4962702,
                    29.31897768
                ],
                [
                    -113.70833738,
                    -114.82882978,
                    31.69560655
                ],
                [
                    -113.67604738,
                    -115.16138746,
                    34.07223543
                ],
                [
                    -113.64375739,
                    -115.49394514,
                    36.4488643
                ],
                [
                    -113.61146738,
                    -115.82650472,
                    38.82549318
                ],
                [
                    -113.57917738,
                    -116.1590624,
                    41.20212205
                ],
                [
                    -113.54688738,
                    -116.49162199,
                    43.57875093
                ],
                [
                    -113.51459737,
                    -116.82417967,
                    45.95537599
                ],
                [
                    -113.48230739,
                    -117.15673734,
                    48.33200487
                ],
                [
                    -113.45001738,
                    -117.48929693,
                    50.70863374
                ],
                [
                    -113.41772739,
                    -117.82185461,
                    53.08526643
                ],
                [
                    -113.38543738,
                    -118.15441419,
                    55.46189149
                ],
                [
                    -113.35314737,
                    -118.48697187,
                    57.83851656
                ],
                [
                    -113.32085739,
                    -118.81953146,
                    60.21514925
                ],
                [
                    -113.28856738,
                    -119.15208914,
                    62.59177431
                ],
                [
                    -113.2562774,
                    -119.48464681,
                    64.968407
                ],
                [
